midas-integrate-v2 export                                                       
# {
#   "package": "midas_integrate_v2",
#   "version": "0.5.1",
#   "timestamp_iso": "2026-08-21T15:35:55.480189+00:00",
#   "integrate_mode": "subpixel",
#   "integrate_K": 2,
#   "n_r_bins": 2048,
#   "n_eta_bins": 72,
#   "spec_summary": {
#     "Lsd_um": 1001310.2146589451,
#     "BC_y_px": 1458.3370141825108,
#     "BC_z_px": 1428.090050749613,
#     "tx_deg": 0.0,
#     "ty_deg": 0.1313366821314741,
#     "tz_deg": -0.13185910779113685,
#     "Parallax_um": 0.0,
#     "Wavelength_A": 0.25302897639428623,
#     "pxY_um": 150.0,
#     "pxZ_um": 150.0,
#     "NrPixelsY": 2880,
#     "NrPixelsZ": 2880,
#     "RhoD_px": 308573.2439386016,
#     "RBinSize_px": 1.0,
#     "EtaBinSize_deg": 5.0,
#     "TransOpt": [],
#     "spec_hash": "349d4275c036ac5f"
#   }
# }
BANK 1 2048 2048 CONST 9.01227 0.85831 0 0 FXYE
       9.01227    2.02175e+03    2.81341e+00
       9.87058    1.82224e+03    2.56999e+00
      10.72889    1.81077e+03    2.42750e+00
      11.58720    2.01999e+03    2.47084e+00
      12.44551    1.90687e+03    2.34419e+00
      13.30381    1.79256e+03    2.16616e+00
      14.16212    2.13300e+03    2.28872e+00
      15.02043    2.40777e+03    2.37095e+00
      15.87873    2.74381e+03    2.43913e+00
      16.73704    3.18063e+03    2.57027e+00
      17.59534    3.98161e+03    2.81216e+00
      18.45365    4.64727e+03    2.93257e+00
      19.31195    5.76597e+03    3.19125e+00
      20.17025    6.30161e+03    3.28167e+00
      21.02855    7.05677e+03    3.37701e+00
      21.88685    8.05564e+03    3.54775e+00
      22.74515    8.45698e+03    3.58294e+00
      23.60345    8.58835e+03    3.51300e+00
      24.46175    8.67668e+03    3.46826e+00
      25.32004    8.54272e+03    3.41444e+00
      26.17834    8.29025e+03    3.28399e+00
      27.03663    8.21111e+03    3.22396e+00
      27.89492    7.83849e+03    3.10159e+00
      28.75321    7.76940e+03    3.03366e+00
      29.61150    7.45497e+03    2.93322e+00
      30.46979    7.64333e+03    2.94329e+00
      31.32808    7.55503e+03    2.86397e+00
      32.18637    7.61101e+03    2.84921e+00
      33.04465    7.59984e+03    2.79941e+00
      33.90293    7.40485e+03    2.73239e+00
      34.76121    7.50599e+03    2.70675e+00
      35.61949    7.62626e+03    2.71084e+00
      36.47777    7.58488e+03    2.66121e+00
      37.33605    7.45017e+03    2.61636e+00
      38.19432    7.54692e+03    2.59519e+00
      39.05260    7.59786e+03    2.57930e+00
      39.91087    7.62201e+03    2.55366e+00
      40.76914    7.68441e+03    2.53721e+00
      41.62741    7.77128e+03    2.52522e+00
      42.48567    7.78768e+03    2.50034e+00
      43.34394    7.91940e+03    2.50074e+00
      44.20220    7.98757e+03    2.48496e+00
      45.06046    7.91545e+03    2.44985e+00
      45.91872    7.88507e+03    2.41932e+00
      46.77697    7.93432e+03    2.41132e+00
      47.63523    8.05429e+03    2.40972e+00
      48.49348    8.03853e+03    2.37341e+00
      49.35173    8.13165e+03    2.37332e+00
      50.20997    8.17315e+03    2.35818e+00
      51.06822    8.20129e+03    2.33677e+00
      51.92646    8.32665e+03    2.34768e+00
      52.78470    8.44840e+03    2.33938e+00
      53.64294    8.56792e+03    2.33114e+00
      54.50118    8.93230e+03    2.36609e+00
      55.35941    9.00732e+03    2.36042e+00
      56.21764    9.39731e+03    2.38424e+00
      57.07587    9.78275e+03    2.42770e+00
      57.93409    1.01742e+04    2.44645e+00
      58.79232    1.05913e+04    2.47736e+00
      59.65054    1.11617e+04    2.53102e+00
      60.50875    1.16078e+04    2.56183e+00
      61.36697    1.24103e+04    2.62464e+00
      62.22518    1.29959e+04    2.67976e+00
      63.08339    1.37078e+04    2.72059e+00
      63.94160    1.44004e+04    2.76837e+00
      64.79980    1.52738e+04    2.83539e+00
      65.65800    1.60028e+04    2.88939e+00
      66.51620    1.69952e+04    2.95011e+00
      67.37440    1.81759e+04    3.04135e+00
      68.23259    1.92530e+04    3.10192e+00
      69.09078    2.07573e+04    3.20335e+00
      69.94896    2.22470e+04    3.28946e+00
      70.80714    2.38020e+04    3.39670e+00
      71.66532    2.54234e+04    3.47121e+00
      72.52350    2.70367e+04    3.57290e+00
      73.38167    2.85846e+04    3.64880e+00
      74.23984    2.98150e+04    3.70244e+00
      75.09801    3.10298e+04    3.75133e+00
      75.95617    3.21560e+04    3.81103e+00
      76.81433    3.30928e+04    3.82999e+00
      77.67249    3.41375e+04    3.87796e+00
      78.53064    3.49728e+04    3.90028e+00
      79.38879    3.58013e+04    3.92324e+00
      80.24694    3.65272e+04    3.93917e+00
      81.10508    3.71259e+04    3.95373e+00
      81.96322    3.76680e+04    3.96169e+00
      82.82135    3.80924e+04    3.96418e+00
      83.67948    3.85865e+04    3.97344e+00
      84.53761    3.86790e+04    3.94843e+00
      85.39573    3.89156e+04    3.94068e+00
      86.25385    3.90641e+04    3.93565e+00
      87.11197    3.92810e+04    3.92792e+00
      87.97008    3.94622e+04    3.90791e+00
      88.82819    3.95999e+04    3.90943e+00
      89.68629    3.95232e+04    3.87363e+00
      90.54439    3.96122e+04    3.86189e+00
      91.40249    3.96410e+04    3.85605e+00
      92.26058    3.97277e+04    3.83943e+00
      93.11867    3.98522e+04    3.81513e+00
      93.97675    3.98952e+04    3.80885e+00
      94.83483    3.99178e+04    3.78388e+00
      95.69290    4.00065e+04    3.77995e+00
      96.55097    4.00262e+04    3.77012e+00
      97.40904    3.99882e+04    3.74317e+00
      98.26710    4.00453e+04    3.72824e+00
      99.12516    3.99626e+04    3.70961e+00
      99.98321    4.00313e+04    3.69377e+00
     100.84126    4.01256e+04    3.68371e+00
     101.69930    4.00938e+04    3.67418e+00
     102.55734    4.00734e+04    3.65301e+00
     103.41538    4.01625e+04    3.63893e+00
     104.27341    4.01681e+04    3.63022e+00
     105.13143    4.02770e+04    3.61503e+00
     105.98946    4.02472e+04    3.60261e+00
     106.84747    4.01856e+04    3.58428e+00
     107.70548    4.01988e+04    3.57006e+00
     108.56349    4.02364e+04    3.55654e+00
     109.42149    4.03145e+04    3.54941e+00
     110.27949    4.03975e+04    3.53215e+00
     111.13748    4.03802e+04    3.52270e+00
     111.99547    4.04227e+04    3.51377e+00
     112.85345    4.05478e+04    3.50425e+00
     113.71142    4.06073e+04    3.48786e+00
     114.56940    4.05864e+04    3.47656e+00
     115.42736    4.05655e+04    3.46690e+00
     116.28532    4.05584e+04    3.45079e+00
     117.14328    4.05634e+04    3.43640e+00
     118.00123    4.06221e+04    3.43240e+00
     118.85918    4.05811e+04    3.41535e+00
     119.71712    4.06478e+04    3.39915e+00
     120.57505    4.06797e+04    3.39856e+00
     121.43298    4.07550e+04    3.38207e+00
     122.29090    4.07952e+04    3.37805e+00
     123.14882    4.08572e+04    3.36466e+00
     124.00673    4.09094e+04    3.35937e+00
     124.86464    4.08990e+04    3.33874e+00
     125.72254    4.07823e+04    3.33216e+00
     126.58044    4.09000e+04    3.31849e+00
     127.43833    4.08913e+04    3.31323e+00
     128.29622    4.09553e+04    3.29904e+00
     129.15409    4.09664e+04    3.29119e+00
     130.01197    4.10354e+04    3.27926e+00
     130.86983    4.10279e+04    3.27338e+00
     131.72770    4.10777e+04    3.26558e+00
     132.58555    4.11375e+04    3.25614e+00
     133.44340    4.11690e+04    3.24155e+00
     134.30124    4.11498e+04    3.23997e+00
     135.15908    4.10749e+04    3.21819e+00
     136.01691    4.12270e+04    3.21403e+00
     136.87474    4.11813e+04    3.20863e+00
     137.73256    4.12508e+04    3.19738e+00
     138.59037    4.12801e+04    3.18905e+00
     139.44818    4.13734e+04    3.18364e+00
     140.30598    4.13198e+04    3.16880e+00
     141.16377    4.13540e+04    3.16320e+00
     142.02156    4.14206e+04    3.16039e+00
     142.87934    4.14297e+04    3.13812e+00
     143.73712    4.14494e+04    3.14036e+00
     144.59489    4.15529e+04    3.13238e+00
     145.45265    4.16007e+04    3.12717e+00
     146.31041    4.16190e+04    3.11289e+00
     147.16816    4.16207e+04    3.11115e+00
     148.02590    4.15616e+04    3.09600e+00
     148.88363    4.15636e+04    3.08613e+00
     149.74136    4.15790e+04    3.07790e+00
     150.59909    4.16609e+04    3.07184e+00
     151.45680    4.16565e+04    3.06406e+00
     152.31451    4.17182e+04    3.06494e+00
     153.17221    4.17158e+04    3.04673e+00
     154.02991    4.17323e+04    3.04024e+00
     154.88760    4.17570e+04    3.03610e+00
     155.74528    4.18053e+04    3.02552e+00
     156.60295    4.17829e+04    3.01614e+00
     157.46062    4.18374e+04    3.01646e+00
     158.31828    4.18704e+04    3.00106e+00
     159.17593    4.18688e+04    2.99488e+00
     160.03358    4.18574e+04    2.99127e+00
     160.89122    4.19242e+04    2.98157e+00
     161.74885    4.18662e+04    2.97478e+00
     162.60648    4.18547e+04    2.96343e+00
     163.46409    4.18859e+04    2.95772e+00
     164.32170    4.19190e+04    2.94874e+00
     165.17931    4.19601e+04    2.94683e+00
     166.03690    4.20095e+04    2.93764e+00
     166.89449    4.20792e+04    2.93226e+00
     167.75207    4.20495e+04    2.92913e+00
     168.60964    4.20928e+04    2.91904e+00
     169.46721    4.21036e+04    2.91294e+00
     170.32477    4.20791e+04    2.90246e+00
     171.18232    4.20415e+04    2.89450e+00
     172.03986    4.20864e+04    2.89087e+00
     172.89739    4.20660e+04    2.88673e+00
     173.75492    4.20488e+04    2.86998e+00
     174.61244    4.20656e+04    2.87055e+00
     175.46995    4.21244e+04    2.85666e+00
     176.32745    4.21854e+04    2.86317e+00
     177.18495    4.21074e+04    2.84781e+00
     178.04244    4.21265e+04    2.84381e+00
     178.89992    4.21804e+04    2.83504e+00
     179.75739    4.21228e+04    2.82691e+00
     180.61485    4.21239e+04    2.82400e+00
     181.47231    4.21056e+04    2.81302e+00
     182.32975    4.21295e+04    2.81118e+00
     183.18719    4.21705e+04    2.79841e+00
     184.04462    4.21471e+04    2.79893e+00
     184.90205    4.21141e+04    2.78878e+00
     185.75946    4.21339e+04    2.78225e+00
     186.61687    4.21527e+04    2.77956e+00
     187.47426    4.21231e+04    2.76820e+00
     188.33165    4.20732e+04    2.75705e+00
     189.18903    4.20944e+04    2.75874e+00
     190.04641    4.21743e+04    2.75365e+00
     190.90377    4.21423e+04    2.74398e+00
     191.76113    4.21318e+04    2.73583e+00
     192.61847    4.21014e+04    2.73509e+00
     193.47581    4.21273e+04    2.72338e+00
     194.33314    4.20896e+04    2.72456e+00
     195.19046    4.21468e+04    2.71186e+00
     196.04777    4.21561e+04    2.70485e+00
     196.90508    4.20930e+04    2.70659e+00
     197.76237    4.20470e+04    2.69528e+00
     198.61966    4.21466e+04    2.69057e+00
     199.47693    4.21736e+04    2.68247e+00
     200.33420    4.21660e+04    2.68360e+00
     201.19146    4.21673e+04    2.67407e+00
     202.04871    4.21181e+04    2.66956e+00
     202.90595    4.21999e+04    2.66294e+00
     203.76318    4.21114e+04    2.65769e+00
     204.62040    4.21362e+04    2.64673e+00
     205.47762    4.21318e+04    2.65012e+00
     206.33482    4.21618e+04    2.63660e+00
     207.19202    4.21706e+04    2.63927e+00
     208.04920    4.21581e+04    2.62826e+00
     208.90638    4.21860e+04    2.62698e+00
     209.76354    4.21142e+04    2.61471e+00
     210.62070    4.20977e+04    2.61462e+00
     211.47785    4.21203e+04    2.60603e+00
     212.33499    4.21101e+04    2.60111e+00
     213.19212    4.21314e+04    2.59926e+00
     214.04924    4.21086e+04    2.59109e+00
     214.90635    4.21189e+04    2.58585e+00
     215.76345    4.20973e+04    2.58068e+00
     216.62054    4.21246e+04    2.57703e+00
     217.47762    4.21529e+04    2.57142e+00
     218.33469    4.20735e+04    2.56618e+00
     219.19175    4.20675e+04    2.55741e+00
     220.04880    4.21070e+04    2.55405e+00
     220.90585    4.20827e+04    2.55015e+00
     221.76288    4.20038e+04    2.54619e+00
     222.61990    4.19922e+04    2.53607e+00
     223.47691    4.20686e+04    2.53508e+00
     224.33391    4.20645e+04    2.52840e+00
     225.19091    4.20508e+04    2.52415e+00
     226.04789    4.21062e+04    2.52219e+00
     226.90486    4.21266e+04    2.51861e+00
     227.76182    4.21150e+04    2.50903e+00
     228.61877    4.21133e+04    2.50898e+00
     229.47571    4.20797e+04    2.50219e+00
     230.33264    4.20703e+04    2.49745e+00
     231.18956    4.20140e+04    2.49153e+00
     232.04648    4.20552e+04    2.48506e+00
     232.90338    4.20522e+04    2.48533e+00
     233.76026    4.20730e+04    2.47524e+00
     234.61714    4.20788e+04    2.47812e+00
     235.47401    4.21162e+04    2.46808e+00
     236.33087    4.20699e+04    2.46405e+00
     237.18772    4.20817e+04    2.45820e+00
     238.04455    4.20578e+04    2.45909e+00
     238.90138    4.20716e+04    2.45263e+00
     239.75820    4.20544e+04    2.44601e+00
     240.61500    4.20590e+04    2.43974e+00
     241.47179    4.20041e+04    2.43659e+00
     242.32858    4.20685e+04    2.43725e+00
     243.18535    4.20173e+04    2.42688e+00
     244.04211    4.20225e+04    2.42414e+00
     244.89886    4.19683e+04    2.41734e+00
     245.75560    4.20176e+04    2.41657e+00
     246.61233    4.20356e+04    2.41374e+00
     247.46905    4.20148e+04    2.40648e+00
     248.32575    4.20774e+04    2.40133e+00
     249.18245    4.20344e+04    2.40225e+00
     250.03913    4.20959e+04    2.39531e+00
     250.89581    4.20637e+04    2.39439e+00
     251.75247    4.20633e+04    2.38465e+00
     252.60912    4.20562e+04    2.38606e+00
     253.46576    4.20766e+04    2.37780e+00
     254.32238    4.20574e+04    2.37854e+00
     255.17900    4.20803e+04    2.36901e+00
     256.03561    4.21595e+04    2.37345e+00
     256.89220    4.20690e+04    2.35974e+00
     257.74878    4.20830e+04    2.36389e+00
     258.60535    4.20729e+04    2.35595e+00
     259.46191    4.20868e+04    2.35293e+00
     260.31846    4.20857e+04    2.34904e+00
     261.17499    4.20537e+04    2.34308e+00
     262.03152    4.20272e+04    2.34006e+00
     262.88803    4.20509e+04    2.33615e+00
     263.74453    4.19449e+04    2.33200e+00
     264.60102    4.20522e+04    2.32670e+00
     265.45750    4.20401e+04    2.32726e+00
     266.31396    4.20596e+04    2.31886e+00
     267.17042    4.20966e+04    2.32091e+00
     268.02686    4.20103e+04    2.30910e+00
     268.88329    4.20877e+04    2.31402e+00
     269.73970    4.20616e+04    2.30365e+00
     270.59611    4.20520e+04    2.30542e+00
     271.45250    4.20924e+04    2.29841e+00
     272.30888    4.20385e+04    2.29363e+00
     273.16525    4.20345e+04    2.29424e+00
     274.02161    4.20390e+04    2.28764e+00
     274.87795    4.19624e+04    2.28215e+00
     275.73428    4.20087e+04    2.28044e+00
     276.59060    4.19740e+04    2.27696e+00
     277.44691    4.19464e+04    2.26879e+00
     278.30321    4.19012e+04    2.26827e+00
     279.15949    4.19173e+04    2.26163e+00
     280.01576    4.19387e+04    2.26304e+00
     280.87201    4.19716e+04    2.25622e+00
     281.72826    4.19643e+04    2.25644e+00
     282.58449    4.20174e+04    2.24820e+00
     283.44071    4.19673e+04    2.25174e+00
     284.29692    4.20200e+04    2.24396e+00
     285.15311    4.20084e+04    2.24244e+00
     286.00929    4.20324e+04    2.23786e+00
     286.86546    4.20337e+04    2.23803e+00
     287.72162    4.20370e+04    2.23056e+00
     288.57776    4.20519e+04    2.22924e+00
     289.43389    4.20399e+04    2.22590e+00
     290.29001    4.20476e+04    2.22440e+00
     291.14611    4.20161e+04    2.22134e+00
     292.00221    4.19984e+04    2.21283e+00
     292.85828    4.20042e+04    2.21196e+00
     293.71435    4.20122e+04    2.20882e+00
     294.57040    4.19948e+04    2.20734e+00
     295.42644    4.19604e+04    2.20108e+00
     296.28246    4.19951e+04    2.20085e+00
     297.13848    4.19845e+04    2.19036e+00
     297.99448    4.19833e+04    2.19560e+00
     298.85046    4.20037e+04    2.18936e+00
     299.70643    4.19805e+04    2.18440e+00
     300.56239    4.19808e+04    2.18428e+00
     301.41834    4.19867e+04    2.18010e+00
     302.27427    4.19671e+04    2.17406e+00
     303.13019    4.19741e+04    2.17498e+00
     303.98610    4.19947e+04    2.17087e+00
     304.84199    4.20221e+04    2.16733e+00
     305.69786    4.19669e+04    2.16675e+00
     306.55373    4.19506e+04    2.15873e+00
     307.40958    4.19891e+04    2.15985e+00
     308.26542    4.19455e+04    2.15275e+00
     309.12124    4.19597e+04    2.15550e+00
     309.97705    4.19765e+04    2.14656e+00
     310.83284    4.18939e+04    2.14563e+00
     311.68863    4.17713e+04    2.13674e+00
     312.54439    4.16001e+04    2.13259e+00
     313.40015    4.12910e+04    2.11703e+00
     314.25589    4.11716e+04    2.11684e+00
     315.11161    4.15055e+04    2.11770e+00
     315.96732    4.17778e+04    2.12418e+00
     316.82302    4.18315e+04    2.12211e+00
     317.67870    4.18597e+04    2.12157e+00
     318.53437    4.18674e+04    2.11574e+00
     319.39003    4.19139e+04    2.11646e+00
     320.24567    4.19202e+04    2.11268e+00
     321.10130    4.19087e+04    2.11160e+00
     321.95691    4.19572e+04    2.10834e+00
     322.81250    4.18935e+04    2.10340e+00
     323.66809    4.19225e+04    2.09970e+00
     324.52366    4.18878e+04    2.09805e+00
     325.37921    4.19367e+04    2.10038e+00
     326.23475    4.19164e+04    2.09186e+00
     327.09028    4.18610e+04    2.08949e+00
     327.94579    4.19695e+04    2.08720e+00
     328.80128    4.19360e+04    2.08929e+00
     329.65676    4.19415e+04    2.08122e+00
     330.51223    4.20332e+04    2.08500e+00
     331.36768    4.19810e+04    2.07684e+00
     332.22312    4.20034e+04    2.07611e+00
     333.07854    4.19915e+04    2.07316e+00
     333.93395    4.20382e+04    2.07198e+00
     334.78934    4.21329e+04    2.07104e+00
     335.64472    4.22008e+04    2.07281e+00
     336.50008    4.22081e+04    2.06962e+00
     337.35543    4.22677e+04    2.06491e+00
     338.21076    4.23760e+04    2.06902e+00
     339.06608    4.24594e+04    2.06626e+00
     339.92138    4.26020e+04    2.06733e+00
     340.77667    4.28786e+04    2.07196e+00
     341.63194    4.32466e+04    2.07626e+00
     342.48720    4.39094e+04    2.09066e+00
     343.34244    4.53103e+04    2.12395e+00
     344.19766    4.83577e+04    2.18791e+00
     345.05287    5.65871e+04    2.36595e+00
     345.90807    8.25082e+04    2.85056e+00
     346.76325    1.72794e+05    4.12358e+00
     347.61841    4.35263e+05    6.52382e+00
     348.47356    7.71630e+05    8.70197e+00
     349.32870    7.19634e+05    8.38394e+00
     350.18381    3.67327e+05    5.98259e+00
     351.03892    1.44116e+05    3.74075e+00
     351.89400    7.38989e+04    2.67414e+00
     352.74907    5.38030e+04    2.27999e+00
     353.60413    4.71697e+04    2.13554e+00
     354.45917    4.46094e+04    2.07078e+00
     355.31419    4.33684e+04    2.03991e+00
     356.16920    4.28206e+04    2.02611e+00
     357.02419    4.25016e+04    2.01325e+00
     357.87916    4.22207e+04    2.00592e+00
     358.73412    4.20616e+04    1.99890e+00
     359.58907    4.19706e+04    1.99598e+00
     360.44400    4.18574e+04    1.98923e+00
     361.29891    4.16961e+04    1.98577e+00
     362.15380    4.17076e+04    1.98108e+00
     363.00868    4.16783e+04    1.97815e+00
     363.86355    4.15950e+04    1.97451e+00
     364.71839    4.15462e+04    1.97215e+00
     365.57322    4.14531e+04    1.96553e+00
     366.42804    4.14018e+04    1.96294e+00
     367.28284    4.13975e+04    1.95792e+00
     368.13762    4.13746e+04    1.95820e+00
     368.99238    4.12956e+04    1.95470e+00
     369.84713    4.12539e+04    1.95091e+00
     370.70187    4.12515e+04    1.94951e+00
     371.55658    4.12370e+04    1.94202e+00
     372.41128    4.11886e+04    1.94159e+00
     373.26596    4.11768e+04    1.94007e+00
     374.12063    4.11923e+04    1.93920e+00
     374.97528    4.11209e+04    1.93249e+00
     375.82991    4.11197e+04    1.93168e+00
     376.68453    4.10866e+04    1.92723e+00
     377.53913    4.10810e+04    1.92823e+00
     378.39371    4.10132e+04    1.92186e+00
     379.24828    4.10173e+04    1.91988e+00
     380.10282    4.10150e+04    1.91707e+00
     380.95736    4.09867e+04    1.91779e+00
     381.81187    4.09553e+04    1.91098e+00
     382.66637    4.09862e+04    1.90983e+00
     383.52085    4.09401e+04    1.90841e+00
     384.37531    4.09502e+04    1.90526e+00
     385.22976    4.08955e+04    1.90466e+00
     386.08419    4.09157e+04    1.90084e+00
     386.93860    4.08744e+04    1.89470e+00
     387.79299    4.09025e+04    1.89576e+00
     388.64737    4.08249e+04    1.89380e+00
     389.50173    4.08103e+04    1.89006e+00
     390.35608    4.07988e+04    1.88938e+00
     391.21040    4.07956e+04    1.88527e+00
     392.06471    4.07975e+04    1.88049e+00
     392.91900    4.07693e+04    1.88049e+00
     393.77327    4.07178e+04    1.88134e+00
     394.62753    4.05687e+04    1.87107e+00
     395.48177    4.05835e+04    1.87069e+00
     396.33599    4.06259e+04    1.86933e+00
     397.19019    4.06942e+04    1.86577e+00
     398.04438    4.07049e+04    1.86866e+00
     398.89854    4.06788e+04    1.86542e+00
     399.75269    4.06777e+04    1.86166e+00
     400.60682    4.06511e+04    1.86113e+00
     401.46094    4.06646e+04    1.85803e+00
     402.31503    4.06496e+04    1.85431e+00
     403.16911    4.06785e+04    1.85317e+00
     404.02317    4.06395e+04    1.85283e+00
     404.87722    4.06524e+04    1.85008e+00
     405.73124    4.06298e+04    1.84878e+00
     406.58525    4.05989e+04    1.84475e+00
     407.43923    4.06477e+04    1.84169e+00
     408.29320    4.06167e+04    1.84160e+00
     409.14716    4.06248e+04    1.84125e+00
     410.00109    4.08250e+04    1.84348e+00
     410.85500    4.08372e+04    1.84077e+00
     411.70890    4.08798e+04    1.83792e+00
     412.56278    4.08297e+04    1.83581e+00
     413.41664    4.07675e+04    1.83350e+00
     414.27048    4.06120e+04    1.83083e+00
     415.12431    4.05567e+04    1.82395e+00
     415.97811    4.05555e+04    1.82212e+00
     416.83190    4.05131e+04    1.82013e+00
     417.68567    4.04660e+04    1.81729e+00
     418.53942    4.04413e+04    1.81400e+00
     419.39315    4.04725e+04    1.81388e+00
     420.24686    4.04635e+04    1.81221e+00
     421.10055    4.04820e+04    1.80954e+00
     421.95423    4.04795e+04    1.80708e+00
     422.80788    4.04396e+04    1.80539e+00
     423.66152    4.03985e+04    1.80447e+00
     424.51514    4.03879e+04    1.79996e+00
     425.36874    4.04015e+04    1.80221e+00
     426.22232    4.04281e+04    1.79510e+00
     427.07588    4.03797e+04    1.79496e+00
     427.92942    4.03377e+04    1.79152e+00
     428.78295    4.03620e+04    1.79213e+00
     429.63645    4.03150e+04    1.78874e+00
     430.48994    4.03729e+04    1.78910e+00
     431.34340    4.03720e+04    1.78484e+00
     432.19685    4.03467e+04    1.78106e+00
     433.05028    4.03851e+04    1.78373e+00
     433.90369    4.03829e+04    1.78199e+00
     434.75708    4.03851e+04    1.77959e+00
     435.61045    4.03851e+04    1.77723e+00
     436.46380    4.03747e+04    1.77430e+00
     437.31713    4.03669e+04    1.77198e+00
     438.17044    4.03791e+04    1.77377e+00
     439.02373    4.02840e+04    1.76735e+00
     439.87701    4.03114e+04    1.76884e+00
     440.73026    4.03010e+04    1.76594e+00
     441.58349    4.02489e+04    1.76133e+00
     442.43671    3.99312e+04    1.75342e+00
     443.28990    3.93351e+04    1.73914e+00
     444.14308    3.88715e+04    1.72568e+00
     444.99623    3.92153e+04    1.73436e+00
     445.84937    3.98080e+04    1.74434e+00
     446.70248    4.01437e+04    1.74868e+00
     447.55558    4.02294e+04    1.74981e+00
     448.40865    4.02500e+04    1.74899e+00
     449.26171    4.02499e+04    1.74833e+00
     450.11474    4.02477e+04    1.74655e+00
     450.96776    4.02346e+04    1.74304e+00
     451.82076    4.02387e+04    1.73886e+00
     452.67373    4.02661e+04    1.74076e+00
     453.52669    4.02289e+04    1.73937e+00
     454.37962    4.02617e+04    1.73910e+00
     455.23254    4.02784e+04    1.73627e+00
     456.08543    4.02649e+04    1.73481e+00
     456.93831    4.03016e+04    1.72992e+00
     457.79116    4.02470e+04    1.73280e+00
     458.64400    4.02294e+04    1.73004e+00
     459.49681    4.03086e+04    1.72911e+00
     460.34960    4.02713e+04    1.72671e+00
     461.20238    4.02855e+04    1.72389e+00
     462.05513    4.02874e+04    1.72183e+00
     462.90786    4.02715e+04    1.72143e+00
     463.76057    4.02344e+04    1.71988e+00
     464.61326    4.02987e+04    1.71910e+00
     465.46593    4.02572e+04    1.71885e+00
     466.31858    4.02769e+04    1.71312e+00
     467.17121    4.02800e+04    1.71312e+00
     468.02382    4.03474e+04    1.71200e+00
     468.87641    4.03450e+04    1.71544e+00
     469.72897    4.03708e+04    1.71113e+00
     470.58152    4.04113e+04    1.71038e+00
     471.43404    4.04341e+04    1.70685e+00
     472.28655    4.04276e+04    1.70776e+00
     473.13903    4.04937e+04    1.70811e+00
     473.99149    4.05308e+04    1.70864e+00
     474.84393    4.05727e+04    1.70542e+00
     475.69635    4.05857e+04    1.70550e+00
     476.54875    4.06090e+04    1.70185e+00
     477.40113    4.06756e+04    1.70276e+00
     478.25349    4.07650e+04    1.70475e+00
     479.10582    4.08352e+04    1.70506e+00
     479.95814    4.09188e+04    1.70475e+00
     480.81043    4.09819e+04    1.70280e+00
     481.66270    4.11084e+04    1.70416e+00
     482.51495    4.12483e+04    1.70423e+00
     483.36718    4.14356e+04    1.71111e+00
     484.21938    4.16959e+04    1.71237e+00
     485.07157    4.20689e+04    1.72116e+00
     485.92373    4.26939e+04    1.72758e+00
     486.77588    4.37415e+04    1.75030e+00
     487.62800    4.55905e+04    1.78100e+00
     488.48010    4.98137e+04    1.86706e+00
     489.33217    6.04740e+04    2.05121e+00
     490.18423    9.23374e+04    2.53543e+00
     491.03627    2.00975e+05    3.72899e+00
     491.88828    5.48845e+05    6.16362e+00
     492.74027    1.16263e+06    8.96213e+00
     493.59224    1.34907e+06    9.64802e+00
     494.44418    8.35870e+05    7.59408e+00
     495.29611    3.24508e+05    4.72276e+00
     496.14801    1.26797e+05    2.94931e+00
     496.99989    7.05994e+04    2.19764e+00
     497.85175    5.30974e+04    1.90561e+00
     498.70359    4.67919e+04    1.78833e+00
     499.55540    4.40847e+04    1.73613e+00
     500.40720    4.27995e+04    1.70510e+00
     501.25897    4.20524e+04    1.68958e+00
     502.11072    4.15305e+04    1.67583e+00
     502.96244    4.12211e+04    1.67234e+00
     503.81415    4.09789e+04    1.66359e+00
     504.66583    4.07574e+04    1.66263e+00
     505.51749    4.05996e+04    1.65042e+00
     506.36912    4.05121e+04    1.65119e+00
     507.22074    4.04392e+04    1.64589e+00
     508.07233    4.03399e+04    1.64503e+00
     508.92390    4.02488e+04    1.64190e+00
     509.77545    4.01708e+04    1.63921e+00
     510.62697    4.01108e+04    1.63438e+00
     511.47847    4.00718e+04    1.63082e+00
     512.32995    4.00215e+04    1.63251e+00
     513.18141    3.99769e+04    1.62748e+00
     514.03284    3.99361e+04    1.62865e+00
     514.88425    3.99079e+04    1.62484e+00
     515.73564    3.98622e+04    1.62118e+00
     516.58700    3.98868e+04    1.61880e+00
     517.43835    3.98555e+04    1.62158e+00
     518.28967    3.97795e+04    1.61556e+00
     519.14096    3.96903e+04    1.61491e+00
     519.99224    3.96672e+04    1.61169e+00
     520.84349    3.96221e+04    1.61046e+00
     521.69471    3.96167e+04    1.60495e+00
     522.54592    3.95908e+04    1.60610e+00
     523.39710    3.95603e+04    1.60355e+00
     524.24826    3.95621e+04    1.60525e+00
     525.09939    3.95198e+04    1.60101e+00
     525.95050    3.95265e+04    1.59855e+00
     526.80159    3.96196e+04    1.59920e+00
     527.65266    3.98724e+04    1.60341e+00
     528.50370    4.00263e+04    1.60624e+00
     529.35472    3.99573e+04    1.60418e+00
     530.20571    3.97920e+04    1.59947e+00
     531.05668    3.95734e+04    1.58997e+00
     531.90763    3.94336e+04    1.58970e+00
     532.75855    3.93768e+04    1.58425e+00
     533.60945    3.93186e+04    1.58641e+00
     534.46033    3.92912e+04    1.58192e+00
     535.31119    3.92952e+04    1.58079e+00
     536.16202    3.92461e+04    1.57620e+00
     537.01282    3.92080e+04    1.57768e+00
     537.86360    3.92244e+04    1.57417e+00
     538.71436    3.92212e+04    1.57610e+00
     539.56510    3.91970e+04    1.57292e+00
     540.41581    3.91304e+04    1.56951e+00
     541.26649    3.91291e+04    1.56795e+00
     542.11716    3.89895e+04    1.56402e+00
     542.96780    3.87744e+04    1.55887e+00
     543.81841    3.84760e+04    1.55325e+00
     544.66900    3.84765e+04    1.55205e+00
     545.51957    3.87323e+04    1.55210e+00
     546.37011    3.89340e+04    1.55755e+00
     547.22063    3.89938e+04    1.55656e+00
     548.07113    3.90588e+04    1.55800e+00
     548.92160    3.91059e+04    1.55686e+00
     549.77204    3.91020e+04    1.55823e+00
     550.62246    3.90782e+04    1.55132e+00
     551.47286    3.91078e+04    1.55464e+00
     552.32323    3.91277e+04    1.55178e+00
     553.17358    3.91703e+04    1.55305e+00
     554.02391    3.91431e+04    1.55160e+00
     554.87421    3.91143e+04    1.54998e+00
     555.72448    3.90647e+04    1.54478e+00
     556.57473    3.90771e+04    1.54465e+00
     557.42496    3.90267e+04    1.54361e+00
     558.27516    3.90447e+04    1.54401e+00
     559.12534    3.90203e+04    1.54137e+00
     559.97549    3.90135e+04    1.54029e+00
     560.82562    3.90177e+04    1.53725e+00
     561.67572    3.89967e+04    1.53595e+00
     562.52580    3.90170e+04    1.53691e+00
     563.37585    3.90136e+04    1.53563e+00
     564.22588    3.90554e+04    1.53488e+00
     565.07588    3.90597e+04    1.53386e+00
     565.92586    3.90340e+04    1.53224e+00
     566.77581    3.90383e+04    1.52920e+00
     567.62574    3.90548e+04    1.53132e+00
     568.47564    3.90528e+04    1.52871e+00
     569.32552    3.90171e+04    1.52787e+00
     570.17537    3.89968e+04    1.52588e+00
     571.02520    3.89741e+04    1.52325e+00
     571.87500    3.89851e+04    1.52216e+00
     572.72478    3.89726e+04    1.52056e+00
     573.57453    3.89493e+04    1.52209e+00
     574.42426    3.90436e+04    1.52086e+00
     575.27396    3.89942e+04    1.51940e+00
     576.12363    3.90113e+04    1.51512e+00
     576.97328    3.89697e+04    1.51565e+00
     577.82291    3.89759e+04    1.51582e+00
     578.67251    3.90227e+04    1.51508e+00
     579.52208    3.90412e+04    1.51401e+00
     580.37163    3.90564e+04    1.51257e+00
     581.22115    3.90720e+04    1.51155e+00
     582.07065    3.90683e+04    1.51223e+00
     582.92012    3.90657e+04    1.50993e+00
     583.76957    3.90787e+04    1.50903e+00
     584.61899    3.90562e+04    1.50812e+00
     585.46838    3.90828e+04    1.50718e+00
     586.31775    3.91297e+04    1.50599e+00
     587.16709    3.91078e+04    1.50504e+00
     588.01641    3.91626e+04    1.50522e+00
     588.86570    3.92127e+04    1.50593e+00
     589.71496    3.92396e+04    1.50514e+00
     590.56420    3.92387e+04    1.50196e+00
     591.41342    3.93034e+04    1.50212e+00
     592.26260    3.93403e+04    1.50334e+00
     593.11176    3.94105e+04    1.50507e+00
     593.96090    3.94827e+04    1.50377e+00
     594.81001    3.95833e+04    1.50586e+00
     595.65909    3.97102e+04    1.50384e+00
     596.50814    3.99916e+04    1.50873e+00
     597.35717    4.02996e+04    1.51586e+00
     598.20618    4.09466e+04    1.52707e+00
     599.05515    4.21731e+04    1.54744e+00
     599.90410    4.52285e+04    1.60147e+00
     600.75303    5.37534e+04    1.74327e+00
     601.60192    8.12915e+04    2.14367e+00
     602.45079    1.74947e+05    3.14406e+00
     603.29964    4.06001e+05    4.78328e+00
     604.14846    6.22545e+05    5.91708e+00
     604.99725    5.28149e+05    5.45465e+00
     605.84601    2.64400e+05    3.84976e+00
     606.69475    1.09995e+05    2.48175e+00
     607.54346    6.17748e+04    1.85943e+00
     608.39214    4.77643e+04    1.63581e+00
     609.24080    4.30924e+04    1.55080e+00
     610.08943    4.12255e+04    1.51628e+00
     610.93804    4.03879e+04    1.49801e+00
     611.78661    3.99131e+04    1.48897e+00
     612.63516    3.96291e+04    1.48366e+00
     613.48369    3.94979e+04    1.48108e+00
     614.33218    3.93008e+04    1.47456e+00
     615.18065    3.92291e+04    1.47240e+00
     616.02909    3.91545e+04    1.46917e+00
     616.87751    3.91394e+04    1.46897e+00
     617.72589    3.90522e+04    1.46782e+00
     618.57425    3.90035e+04    1.46376e+00
     619.42259    3.89418e+04    1.46123e+00
     620.27089    3.89457e+04    1.46099e+00
     621.11917    3.89038e+04    1.45964e+00
     621.96742    3.88589e+04    1.45724e+00
     622.81565    3.88531e+04    1.45717e+00
     623.66384    3.88355e+04    1.45450e+00
     624.51201    3.87342e+04    1.45256e+00
     625.36015    3.86216e+04    1.44954e+00
     626.20827    3.85969e+04    1.44711e+00
     627.05635    3.85827e+04    1.44457e+00
     627.90441    3.84343e+04    1.44469e+00
     628.75244    3.83335e+04    1.43947e+00
     629.60045    3.84674e+04    1.44222e+00
     630.44842    3.85927e+04    1.44165e+00
     631.29637    3.86497e+04    1.44232e+00
     632.14429    3.86684e+04    1.44131e+00
     632.99218    3.86448e+04    1.44203e+00
     633.84005    3.86559e+04    1.43950e+00
     634.68789    3.86040e+04    1.43795e+00
     635.53570    3.86095e+04    1.43667e+00
     636.38348    3.85447e+04    1.43539e+00
     637.23123    3.85560e+04    1.43441e+00
     638.07895    3.85550e+04    1.43359e+00
     638.92665    3.85830e+04    1.43231e+00
     639.77432    3.85927e+04    1.43124e+00
     640.62196    3.85657e+04    1.43066e+00
     641.46957    3.85532e+04    1.42914e+00
     642.31716    3.85174e+04    1.42908e+00
     643.16471    3.85158e+04    1.42566e+00
     644.01224    3.85413e+04    1.42707e+00
     644.85974    3.85010e+04    1.42384e+00
     645.70721    3.84860e+04    1.42428e+00
     646.55466    3.85495e+04    1.42193e+00
     647.40207    3.85496e+04    1.42414e+00
     648.24946    3.85205e+04    1.42010e+00
     649.09681    3.85020e+04    1.42117e+00
     649.94414    3.84917e+04    1.41764e+00
     650.79144    3.84782e+04    1.41735e+00
     651.63872    3.85085e+04    1.41710e+00
     652.48596    3.84975e+04    1.41663e+00
     653.33317    3.84463e+04    1.41385e+00
     654.18036    3.84511e+04    1.41328e+00
     655.02752    3.84831e+04    1.41405e+00
     655.87464    3.84966e+04    1.41221e+00
     656.72174    3.84559e+04    1.41037e+00
     657.56881    3.84569e+04    1.40969e+00
     658.41586    3.84708e+04    1.40911e+00
     659.26287    3.84775e+04    1.40880e+00
     660.10985    3.84728e+04    1.40791e+00
     660.95681    3.84531e+04    1.40498e+00
     661.80374    3.84652e+04    1.40618e+00
     662.65063    3.84756e+04    1.40403e+00
     663.49750    3.84605e+04    1.40325e+00
     664.34434    3.84822e+04    1.40253e+00
     665.19115    3.84647e+04    1.40304e+00
     666.03793    3.84477e+04    1.39997e+00
     666.88468    3.85107e+04    1.40108e+00
     667.73140    3.86771e+04    1.40218e+00
     668.57810    3.89690e+04    1.40757e+00
     669.42476    3.93674e+04    1.41363e+00
     670.27139    3.93900e+04    1.41357e+00
     671.11800    3.90529e+04    1.40576e+00
     671.96457    3.88279e+04    1.40132e+00
     672.81112    3.87057e+04    1.39812e+00
     673.65763    3.86215e+04    1.39550e+00
     674.50412    3.85450e+04    1.39353e+00
     675.35058    3.85068e+04    1.39245e+00
     676.19701    3.84977e+04    1.39043e+00
     677.04340    3.85170e+04    1.39039e+00
     677.88977    3.84996e+04    1.38900e+00
     678.73611    3.85514e+04    1.38806e+00
     679.58242    3.85618e+04    1.38991e+00
     680.42870    3.85368e+04    1.38582e+00
     681.27495    3.85400e+04    1.38754e+00
     682.12116    3.85434e+04    1.38470e+00
     682.96735    3.85428e+04    1.38483e+00
     683.81351    3.85266e+04    1.38333e+00
     684.65964    3.85418e+04    1.38271e+00
     685.50574    3.85665e+04    1.38291e+00
     686.35181    3.85786e+04    1.38214e+00
     687.19785    3.86367e+04    1.38215e+00
     688.04386    3.87022e+04    1.38097e+00
     688.88984    3.87788e+04    1.38349e+00
     689.73579    3.88539e+04    1.38330e+00
     690.58171    3.90137e+04    1.38542e+00
     691.42759    3.92591e+04    1.38882e+00
     692.27345    3.97349e+04    1.39663e+00
     693.11928    4.07845e+04    1.41332e+00
     693.96508    4.35566e+04    1.46074e+00
     694.81084    5.19787e+04    1.59261e+00
     695.65658    8.05499e+04    1.98514e+00
     696.50229    1.65723e+05    2.84075e+00
     697.34796    3.00789e+05    3.82937e+00
     698.19361    3.34956e+05    4.03325e+00
     699.03922    2.21318e+05    3.28141e+00
     699.88481    1.05728e+05    2.26384e+00
     700.73036    5.90842e+04    1.69287e+00
     701.57588    4.53854e+04    1.48179e+00
     702.42137    4.08541e+04    1.40625e+00
     703.26683    3.91900e+04    1.37595e+00
     704.11226    3.87757e+04    1.36605e+00
     704.95766    3.87736e+04    1.36766e+00
     705.80303    3.87795e+04    1.36576e+00
     706.64837    3.87085e+04    1.36438e+00
     707.49368    3.86583e+04    1.36241e+00
     708.33895    3.85940e+04    1.35971e+00
     709.18420    3.85339e+04    1.35787e+00
     710.02941    3.85480e+04    1.35835e+00
     710.87459    3.85307e+04    1.35710e+00
     711.71975    3.85217e+04    1.35516e+00
     712.56487    3.85198e+04    1.35481e+00
     713.40996    3.85105e+04    1.35377e+00
     714.25501    3.84494e+04    1.35157e+00
     715.10004    3.83723e+04    1.35028e+00
     715.94504    3.83624e+04    1.34950e+00
     716.79000    3.83613e+04    1.34727e+00
     717.63493    3.83343e+04    1.34670e+00
     718.47984    3.82757e+04    1.34504e+00
     719.32471    3.82866e+04    1.34361e+00
     720.16955    3.82835e+04    1.34479e+00
     721.01435    3.82698e+04    1.34237e+00
     721.85913    3.82559e+04    1.34061e+00
     722.70387    3.82402e+04    1.34046e+00
     723.54859    3.82451e+04    1.33954e+00
     724.39327    3.82487e+04    1.33850e+00
     725.23792    3.82587e+04    1.33862e+00
     726.08253    3.82525e+04    1.33826e+00
     726.92712    3.81957e+04    1.33417e+00
     727.77167    3.82072e+04    1.33550e+00
     728.61620    3.81893e+04    1.33422e+00
     729.46069    3.82192e+04    1.33254e+00
     730.30515    3.81678e+04    1.33288e+00
     731.14957    3.81643e+04    1.33078e+00
     731.99397    3.81481e+04    1.33012e+00
     732.83833    3.81614e+04    1.32915e+00
     733.68266    3.81998e+04    1.33065e+00
     734.52696    3.81859e+04    1.32716e+00
     735.37123    3.81755e+04    1.32826e+00
     736.21546    3.81895e+04    1.32746e+00
     737.05966    3.81603e+04    1.32497e+00
     737.90383    3.81407e+04    1.32448e+00
     738.74797    3.81274e+04    1.32370e+00
     739.59208    3.81455e+04    1.32243e+00
     740.43615    3.81412e+04    1.32260e+00
     741.28019    3.81692e+04    1.32306e+00
     742.12420    3.81688e+04    1.32033e+00
     742.96818    3.82066e+04    1.32104e+00
     743.81212    3.81928e+04    1.32017e+00
     744.65603    3.81714e+04    1.31884e+00
     745.49991    3.81616e+04    1.31834e+00
     746.34376    3.81813e+04    1.31757e+00
     747.18757    3.81938e+04    1.31644e+00
     748.03136    3.81538e+04    1.31560e+00
     748.87511    3.81776e+04    1.31637e+00
     749.71882    3.82232e+04    1.31489e+00
     750.56250    3.82147e+04    1.31406e+00
     751.40616    3.82199e+04    1.31489e+00
     752.24977    3.82082e+04    1.31238e+00
     753.09336    3.82551e+04    1.31244e+00
     753.93691    3.82516e+04    1.31238e+00
     754.78043    3.82337e+04    1.31128e+00
     755.62392    3.82591e+04    1.31101e+00
     756.46737    3.82710e+04    1.31024e+00
     757.31079    3.83000e+04    1.31021e+00
     758.15418    3.83057e+04    1.30822e+00
     758.99753    3.83231e+04    1.30990e+00
     759.84086    3.83485e+04    1.30790e+00
     760.68414    3.83840e+04    1.30909e+00
     761.52740    3.83819e+04    1.30736e+00
     762.37062    3.83576e+04    1.30692e+00
     763.21381    3.83958e+04    1.30600e+00
     764.05697    3.84183e+04    1.30610e+00
     764.90009    3.84883e+04    1.30673e+00
     765.74318    3.85240e+04    1.30694e+00
     766.58623    3.85342e+04    1.30583e+00
     767.42925    3.85875e+04    1.30555e+00
     768.27224    3.86062e+04    1.30633e+00
     769.11520    3.85354e+04    1.30326e+00
     769.95812    3.84526e+04    1.30200e+00
     770.80101    3.85620e+04    1.30254e+00
     771.64386    3.88448e+04    1.30722e+00
     772.48669    3.92634e+04    1.31271e+00
     773.32947    3.97173e+04    1.32057e+00
     774.17223    4.04313e+04    1.32967e+00
     775.01495    4.18026e+04    1.35440e+00
     775.85763    4.49329e+04    1.40092e+00
     776.70029    5.34824e+04    1.52866e+00
     777.54290    8.07098e+04    1.87518e+00
     778.38549    1.71869e+05    2.73783e+00
     779.22804    4.08866e+05    4.21680e+00
     780.07056    6.84520e+05    5.45828e+00
     780.91304    6.61659e+05    5.35820e+00
     781.75549    3.77139e+05    4.04734e+00
     782.59791    1.55169e+05    2.59171e+00
     783.44029    7.48668e+04    1.80086e+00
     784.28263    5.15624e+04    1.49368e+00
     785.12495    4.41107e+04    1.37987e+00
     785.96723    4.13380e+04    1.33620e+00
     786.80947    4.01186e+04    1.31456e+00
     787.65168    3.95251e+04    1.30454e+00
     788.49386    3.91064e+04    1.29692e+00
     789.33600    3.89013e+04    1.29335e+00
     790.17811    3.87543e+04    1.28871e+00
     791.02018    3.86071e+04    1.28756e+00
     791.86222    3.85273e+04    1.28383e+00
     792.70422    3.84232e+04    1.28303e+00
     793.54619    3.83531e+04    1.27926e+00
     794.38813    3.83012e+04    1.27899e+00
     795.23003    3.82539e+04    1.27605e+00
     796.07190    3.82128e+04    1.27735e+00
     796.91373    3.81626e+04    1.27390e+00
     797.75553    3.81044e+04    1.27201e+00
     798.59729    3.81346e+04    1.27309e+00
     799.43902    3.80710e+04    1.27051e+00
     800.28071    3.80442e+04    1.26915e+00
     801.12237    3.80130e+04    1.26925e+00
     801.96399    3.79691e+04    1.26704e+00
     802.80558    3.79820e+04    1.26637e+00
     803.64713    3.79601e+04    1.26555e+00
     804.48865    3.79212e+04    1.26339e+00
     805.33014    3.79326e+04    1.26414e+00
     806.17159    3.78679e+04    1.26207e+00
     807.01300    3.78486e+04    1.26159e+00
     807.85438    3.78349e+04    1.25914e+00
     808.69572    3.78234e+04    1.26046e+00
     809.53703    3.78194e+04    1.25780e+00
     810.37831    3.77918e+04    1.25679e+00
     811.21954    3.77831e+04    1.25654e+00
     812.06075    3.77716e+04    1.25619e+00
     812.90192    3.77875e+04    1.25520e+00
     813.74305    3.77866e+04    1.25574e+00
     814.58415    3.77725e+04    1.25224e+00
     815.42521    3.77727e+04    1.25308e+00
     816.26623    3.77774e+04    1.25339e+00
     817.10723    3.77189e+04    1.25135e+00
     817.94818    3.77433e+04    1.25108e+00
     818.78910    3.77049e+04    1.24819e+00
     819.62999    3.77175e+04    1.24858e+00
     820.47084    3.77337e+04    1.24792e+00
     821.31165    3.77831e+04    1.24995e+00
     822.15243    3.78429e+04    1.24913e+00
     822.99317    3.78106e+04    1.24745e+00
     823.83388    3.77743e+04    1.24636e+00
     824.67455    3.77103e+04    1.24548e+00
     825.51518    3.77023e+04    1.24374e+00
     826.35578    3.76851e+04    1.24384e+00
     827.19635    3.76878e+04    1.24235e+00
     828.03688    3.76779e+04    1.24242e+00
     828.87737    3.77036e+04    1.24139e+00
     829.71782    3.77011e+04    1.24077e+00
     830.55824    3.77050e+04    1.24003e+00
     831.39863    3.76877e+04    1.23949e+00
     832.23898    3.76613e+04    1.23860e+00
     833.07929    3.76869e+04    1.23857e+00
     833.91956    3.77016e+04    1.23735e+00
     834.75980    3.76908e+04    1.23612e+00
     835.60001    3.76807e+04    1.23618e+00
     836.44017    3.76697e+04    1.23595e+00
     837.28031    3.76989e+04    1.23535e+00
     838.12040    3.76890e+04    1.23469e+00
     838.96046    3.76629e+04    1.23244e+00
     839.80048    3.76703e+04    1.23261e+00
     840.64047    3.76753e+04    1.23252e+00
     841.48042    3.76522e+04    1.23236e+00
     842.32033    3.76885e+04    1.23112e+00
     843.16021    3.77284e+04    1.23158e+00
     844.00005    3.77720e+04    1.23066e+00
     844.83985    3.78441e+04    1.23166e+00
     845.67962    3.79244e+04    1.23323e+00
     846.51935    3.80257e+04    1.23389e+00
     847.35904    3.81606e+04    1.23546e+00
     848.19870    3.84039e+04    1.23806e+00
     849.03832    3.87985e+04    1.24413e+00
     849.87790    3.96981e+04    1.25674e+00
     850.71745    4.18740e+04    1.29242e+00
     851.55696    4.81167e+04    1.38313e+00
     852.39643    6.85014e+04    1.65119e+00
     853.23587    1.33704e+05    2.30223e+00
     854.07527    2.74169e+05    3.29759e+00
     854.91463    3.87769e+05    3.91673e+00
     855.75396    3.31433e+05    3.62644e+00
     856.59325    1.80489e+05    2.67142e+00
     857.43250    8.47556e+04    1.83020e+00
     858.27171    5.26072e+04    1.43929e+00
     859.11089    4.31988e+04    1.30569e+00
     859.95003    4.00962e+04    1.25592e+00
     860.78913    3.88756e+04    1.23842e+00
     861.62820    3.83609e+04    1.22794e+00
     862.46723    3.80578e+04    1.22210e+00
     863.30622    3.78764e+04    1.21846e+00
     864.14518    3.77755e+04    1.21679e+00
     864.98409    3.77111e+04    1.21521e+00
     865.82297    3.76515e+04    1.21372e+00
     866.66181    3.75723e+04    1.21223e+00
     867.50062    3.75455e+04    1.21031e+00
     868.33939    3.75182e+04    1.20940e+00
     869.17811    3.74971e+04    1.20885e+00
     870.01681    3.74762e+04    1.20785e+00
     870.85546    3.74540e+04    1.20622e+00
     871.69408    3.73650e+04    1.20662e+00
     872.53266    3.73767e+04    1.20316e+00
     873.37120    3.73629e+04    1.20375e+00
     874.20970    3.73865e+04    1.20222e+00
     875.04817    3.73365e+04    1.20284e+00
     875.88660    3.73233e+04    1.20127e+00
     876.72499    3.73156e+04    1.20199e+00
     877.56334    3.73137e+04    1.19855e+00
     878.40166    3.72773e+04    1.19896e+00
     879.23993    3.72546e+04    1.19693e+00
     880.07817    3.72278e+04    1.19657e+00
     880.91637    3.72317e+04    1.19714e+00
     881.75454    3.72513e+04    1.19674e+00
     882.59266    3.72435e+04    1.19407e+00
     883.43075    3.71961e+04    1.19313e+00
     884.26880    3.71931e+04    1.19372e+00
     885.10681    3.71788e+04    1.19233e+00
     885.94478    3.71417e+04    1.19285e+00
     886.78271    3.71102e+04    1.18950e+00
     887.62061    3.71168e+04    1.18935e+00
     888.45847    3.70930e+04    1.18879e+00
     889.29629    3.70211e+04    1.18712e+00
     890.13407    3.69596e+04    1.18516e+00
     890.97181    3.69705e+04    1.18683e+00
     891.80952    3.70244e+04    1.18449e+00
     892.64718    3.70962e+04    1.18632e+00
     893.48481    3.70927e+04    1.18428e+00
     894.32240    3.71123e+04    1.18576e+00
     895.15995    3.71068e+04    1.18520e+00
     895.99746    3.70621e+04    1.18333e+00
     896.83493    3.70889e+04    1.18246e+00
     897.67237    3.70466e+04    1.18176e+00
     898.50977    3.70370e+04    1.18108e+00
     899.34712    3.70427e+04    1.18030e+00
     900.18444    3.70552e+04    1.18065e+00
     901.02172    3.70102e+04    1.17956e+00
     901.85896    3.70223e+04    1.17966e+00
     902.69616    3.70110e+04    1.17635e+00
     903.53333    3.70145e+04    1.17755e+00
     904.37045    3.70107e+04    1.17579e+00
     905.20754    3.69832e+04    1.17718e+00
     906.04458    3.70057e+04    1.17552e+00
     906.88159    3.69981e+04    1.17555e+00
     907.71856    3.69755e+04    1.17285e+00
     908.55549    3.69767e+04    1.17409e+00
     909.39238    3.69677e+04    1.17229e+00
     910.22923    3.69879e+04    1.17414e+00
     911.06604    3.69515e+04    1.17145e+00
     911.90282    3.69282e+04    1.17045e+00
     912.73955    3.69547e+04    1.16963e+00
     913.57624    3.69732e+04    1.16992e+00
     914.41290    3.69826e+04    1.16979e+00
     915.24951    3.71056e+04    1.17175e+00
     916.08609    3.71909e+04    1.17230e+00
     916.92263    3.72239e+04    1.17202e+00
     917.75913    3.70930e+04    1.16888e+00
     918.59558    3.70048e+04    1.16757e+00
     919.43200    3.69515e+04    1.16587e+00
     920.26838    3.69531e+04    1.16547e+00
     921.10472    3.69232e+04    1.16489e+00
     921.94102    3.68979e+04    1.16400e+00
     922.77728    3.69137e+04    1.16318e+00
     923.61350    3.69098e+04    1.16163e+00
     924.44968    3.69114e+04    1.16298e+00
     925.28582    3.68914e+04    1.16141e+00
     926.12192    3.68706e+04    1.16114e+00
     926.95799    3.68694e+04    1.15970e+00
     927.79401    3.68651e+04    1.15887e+00
     928.62999    3.68667e+04    1.15833e+00
     929.46593    3.68767e+04    1.15891e+00
     930.30183    3.68514e+04    1.15794e+00
     931.13770    3.68591e+04    1.15779e+00
     931.97352    3.68516e+04    1.15568e+00
     932.80930    3.68222e+04    1.15444e+00
     933.64504    3.68610e+04    1.15553e+00
     934.48075    3.68442e+04    1.15592e+00
     935.31641    3.68130e+04    1.15355e+00
     936.15203    3.68727e+04    1.15419e+00
     936.98761    3.68551e+04    1.15275e+00
     937.82315    3.68752e+04    1.15281e+00
     938.65865    3.68727e+04    1.15253e+00
     939.49411    3.68786e+04    1.15297e+00
     940.32953    3.68449e+04    1.15105e+00
     941.16491    3.68391e+04    1.15121e+00
     942.00025    3.68322e+04    1.14976e+00
     942.83555    3.67373e+04    1.14696e+00
     943.67081    3.65422e+04    1.14379e+00
     944.50603    3.63271e+04    1.14136e+00
     945.34121    3.63194e+04    1.13977e+00
     946.17635    3.65457e+04    1.14372e+00
     947.01144    3.67286e+04    1.14433e+00
     947.84650    3.67721e+04    1.14501e+00
     948.68152    3.68256e+04    1.14529e+00
     949.51649    3.68350e+04    1.14621e+00
     950.35143    3.68535e+04    1.14458e+00
     951.18632    3.68189e+04    1.14411e+00
     952.02117    3.68048e+04    1.14287e+00
     952.85598    3.68242e+04    1.14319e+00
     953.69076    3.68162e+04    1.14309e+00
     954.52549    3.68042e+04    1.14124e+00
     955.36017    3.68307e+04    1.14177e+00
     956.19482    3.68451e+04    1.14103e+00
     957.02943    3.68576e+04    1.14138e+00
     957.86400    3.68325e+04    1.13975e+00
     958.69852    3.68325e+04    1.13963e+00
     959.53301    3.68220e+04    1.13882e+00
     960.36745    3.68167e+04    1.13914e+00
     961.20185    3.68213e+04    1.13781e+00
     962.03621    3.68182e+04    1.13690e+00
     962.87053    3.67913e+04    1.13653e+00
     963.70481    3.67977e+04    1.13599e+00
     964.53905    3.67875e+04    1.13567e+00
     965.37325    3.67547e+04    1.13429e+00
     966.20740    3.67857e+04    1.13497e+00
     967.04151    3.67924e+04    1.13313e+00
     967.87559    3.68245e+04    1.13463e+00
     968.70962    3.68253e+04    1.13300e+00
     969.54361    3.68346e+04    1.13328e+00
     970.37755    3.68123e+04    1.13260e+00
     971.21146    3.68021e+04    1.13203e+00
     972.04532    3.68094e+04    1.13047e+00
     972.87915    3.68022e+04    1.13107e+00
     973.71293    3.68238e+04    1.13048e+00
     974.54667    3.68760e+04    1.13048e+00
     975.38037    3.68456e+04    1.12974e+00
     976.21402    3.69408e+04    1.13114e+00
     977.04764    3.70527e+04    1.13181e+00
     977.88121    3.71344e+04    1.13294e+00
     978.71474    3.71537e+04    1.13269e+00
     979.54823    3.71505e+04    1.13158e+00
     980.38168    3.71454e+04    1.13172e+00
     981.21509    3.72357e+04    1.13235e+00
     982.04845    3.75217e+04    1.13615e+00
     982.88177    3.80379e+04    1.14391e+00
     983.71505    3.94764e+04    1.16488e+00
     984.54829    4.39934e+04    1.22766e+00
     985.38148    5.88551e+04    1.42159e+00
     986.21464    9.86400e+04    1.83777e+00
     987.04775    1.55918e+05    2.31128e+00
     987.88082    1.72855e+05    2.42988e+00
     988.71384    1.28786e+05    2.09743e+00
     989.54683    7.49474e+04    1.59998e+00
     990.37977    4.90300e+04    1.29344e+00
     991.21267    4.09079e+04    1.18023e+00
     992.04553    3.84339e+04    1.14406e+00
     992.87835    3.75883e+04    1.13096e+00
     993.71112    3.72303e+04    1.12533e+00
     994.54385    3.69772e+04    1.12004e+00
     995.37654    3.67451e+04    1.11714e+00
     996.20918    3.65555e+04    1.11344e+00
     997.04179    3.65873e+04    1.11368e+00
     997.87435    3.66707e+04    1.11378e+00
     998.70687    3.67785e+04    1.11472e+00
     999.53934    3.68171e+04    1.11574e+00
    1000.37178    3.67912e+04    1.11450e+00
    1001.20417    3.67785e+04    1.11451e+00
    1002.03651    3.68234e+04    1.11384e+00
    1002.86882    3.68959e+04    1.11484e+00
    1003.70108    3.69594e+04    1.11443e+00
    1004.53330    3.69560e+04    1.11530e+00
    1005.36548    3.69023e+04    1.11318e+00
    1006.19761    3.68296e+04    1.11184e+00
    1007.02970    3.67753e+04    1.11059e+00
    1007.86175    3.67504e+04    1.10930e+00
    1008.69376    3.67728e+04    1.10942e+00
    1009.52572    3.67519e+04    1.10916e+00
    1010.35764    3.67517e+04    1.10795e+00
    1011.18951    3.67173e+04    1.10736e+00
    1012.02135    3.67214e+04    1.10705e+00
    1012.85314    3.67198e+04    1.10675e+00
    1013.68488    3.67028e+04    1.10531e+00
    1014.51659    3.67109e+04    1.10586e+00
    1015.34825    3.67008e+04    1.10438e+00
    1016.17986    3.67106e+04    1.10482e+00
    1017.01144    3.67444e+04    1.10458e+00
    1017.84297    3.67537e+04    1.10388e+00
    1018.67445    3.67098e+04    1.10261e+00
    1019.50590    3.67339e+04    1.10334e+00
    1020.33730    3.67385e+04    1.10231e+00
    1021.16866    3.67416e+04    1.10249e+00
    1021.99997    3.67945e+04    1.10244e+00
    1022.83124    3.67719e+04    1.10165e+00
    1023.66247    3.67663e+04    1.10026e+00
    1024.49365    3.67903e+04    1.10191e+00
    1025.32479    3.67713e+04    1.10026e+00
    1026.15588    3.68081e+04    1.10083e+00
    1026.98694    3.68407e+04    1.10002e+00
    1027.81794    3.68323e+04    1.09964e+00
    1028.64891    3.68371e+04    1.09911e+00
    1029.47983    3.68707e+04    1.09999e+00
    1030.31071    3.68571e+04    1.09833e+00
    1031.14154    3.68795e+04    1.09919e+00
    1031.97233    3.69294e+04    1.09936e+00
    1032.80308    3.69529e+04    1.09879e+00
    1033.63378    3.69772e+04    1.09806e+00
    1034.46444    3.69955e+04    1.09937e+00
    1035.29505    3.70202e+04    1.09851e+00
    1036.12562    3.70718e+04    1.09887e+00
    1036.95615    3.71420e+04    1.09982e+00
    1037.78663    3.72207e+04    1.09930e+00
    1038.61706    3.72987e+04    1.10086e+00
    1039.44746    3.74413e+04    1.10273e+00
    1040.27781    3.76135e+04    1.10507e+00
    1041.10811    3.79198e+04    1.10853e+00
    1041.93837    3.85178e+04    1.11686e+00
    1042.76859    3.98078e+04    1.13486e+00
    1043.59876    4.31248e+04    1.18108e+00
    1044.42889    5.30128e+04    1.30829e+00
    1045.25898    8.53822e+04    1.66094e+00
    1046.08902    1.78069e+05    2.39651e+00
    1046.91901    3.36996e+05    3.29449e+00
    1047.74896    4.27730e+05    3.71333e+00
    1048.57887    3.43542e+05    3.32334e+00
    1049.40873    1.83651e+05    2.42947e+00
    1050.23855    8.63025e+04    1.66535e+00
    1051.06832    5.29858e+04    1.30533e+00
    1051.89805    4.29703e+04    1.17339e+00
    1052.72773    3.96358e+04    1.12689e+00
    1053.55737    3.83216e+04    1.10754e+00
    1054.38696    3.77773e+04    1.10000e+00
    1055.21651    3.74950e+04    1.09404e+00
    1056.04602    3.73104e+04    1.09213e+00
    1056.87548    3.71977e+04    1.08944e+00
    1057.70489    3.71397e+04    1.08850e+00
    1058.53426    3.70770e+04    1.08690e+00
    1059.36359    3.69741e+04    1.08495e+00
    1060.19287    3.69027e+04    1.08314e+00
    1061.02210    3.68645e+04    1.08306e+00
    1061.85129    3.68195e+04    1.08151e+00
    1062.68044    3.68205e+04    1.08076e+00
    1063.50954    3.67859e+04    1.08046e+00
    1064.33860    3.67454e+04    1.07927e+00
    1065.16761    3.67510e+04    1.07860e+00
    1065.99657    3.66953e+04    1.07707e+00
    1066.82549    3.66985e+04    1.07803e+00
    1067.65437    3.66644e+04    1.07544e+00
    1068.48320    3.66492e+04    1.07629e+00
    1069.31198    3.66427e+04    1.07446e+00
    1070.14072    3.66444e+04    1.07433e+00
    1070.96942    3.66379e+04    1.07454e+00
    1071.79806    3.65789e+04    1.07322e+00
    1072.62667    3.66124e+04    1.07219e+00
    1073.45522    3.66096e+04    1.07247e+00
    1074.28374    3.65675e+04    1.07113e+00
    1075.11220    3.65651e+04    1.07084e+00
    1075.94063    3.65755e+04    1.07118e+00
    1076.76900    3.65881e+04    1.07049e+00
    1077.59733    3.65960e+04    1.06934e+00
    1078.42562    3.65497e+04    1.06961e+00
    1079.25386    3.65829e+04    1.06906e+00
    1080.08205    3.65690e+04    1.06821e+00
    1080.91020    3.66017e+04    1.06880e+00
    1081.73830    3.65581e+04    1.06732e+00
    1082.56636    3.65648e+04    1.06698e+00
    1083.39437    3.65768e+04    1.06732e+00
    1084.22233    3.65688e+04    1.06624e+00
    1085.05025    3.65858e+04    1.06504e+00
    1085.87812    3.66001e+04    1.06655e+00
    1086.70595    3.66265e+04    1.06646e+00
    1087.53373    3.66324e+04    1.06591e+00
    1088.36147    3.66377e+04    1.06487e+00
    1089.18916    3.66188e+04    1.06423e+00
    1090.01680    3.66245e+04    1.06371e+00
    1090.84440    3.66389e+04    1.06465e+00
    1091.67195    3.66702e+04    1.06471e+00
    1092.49946    3.66549e+04    1.06336e+00
    1093.32691    3.66923e+04    1.06338e+00
    1094.15433    3.67573e+04    1.06379e+00
    1094.98169    3.68171e+04    1.06422e+00
    1095.80901    3.68938e+04    1.06587e+00
    1096.63629    3.69769e+04    1.06590e+00
    1097.46352    3.71601e+04    1.06829e+00
    1098.29070    3.74402e+04    1.07211e+00
    1099.11783    3.79927e+04    1.07872e+00
    1099.94492    3.92983e+04    1.09678e+00
    1100.77197    4.28364e+04    1.14565e+00
    1101.59896    5.39419e+04    1.28476e+00
    1102.42591    8.91055e+04    1.65152e+00
    1103.25281    1.74706e+05    2.30871e+00
    1104.07967    2.81355e+05    2.92961e+00
    1104.90648    3.02425e+05    3.03598e+00
    1105.73324    2.12902e+05    2.54901e+00
    1106.55996    1.10276e+05    1.83267e+00
    1107.38663    6.03839e+04    1.35618e+00
    1108.21325    4.46317e+04    1.16405e+00
    1109.03983    3.98114e+04    1.09992e+00
    1109.86636    3.81146e+04    1.07522e+00
    1110.69284    3.73806e+04    1.06526e+00
    1111.51928    3.70860e+04    1.06042e+00
    1112.34567    3.68984e+04    1.05755e+00
    1113.17201    3.67703e+04    1.05445e+00
    1113.99831    3.67043e+04    1.05275e+00
    1114.82456    3.66172e+04    1.05211e+00
    1115.65076    3.65538e+04    1.05093e+00
    1116.47691    3.65044e+04    1.04991e+00
    1117.30302    3.64801e+04    1.04874e+00
    1118.12908    3.64483e+04    1.04753e+00
    1118.95510    3.64211e+04    1.04677e+00
    1119.78106    3.64092e+04    1.04693e+00
    1120.60698    3.63876e+04    1.04588e+00
    1121.43286    3.63775e+04    1.04593e+00
    1122.25868    3.63377e+04    1.04430e+00
    1123.08446    3.63231e+04    1.04370e+00
    1123.91019    3.63497e+04    1.04266e+00
    1124.73587    3.63233e+04    1.04336e+00
    1125.56151    3.63156e+04    1.04269e+00
    1126.38710    3.63329e+04    1.04276e+00
    1127.21264    3.62904e+04    1.04105e+00
    1128.03813    3.62704e+04    1.04033e+00
    1128.86358    3.62790e+04    1.04009e+00
    1129.68898    3.62587e+04    1.03966e+00
    1130.51433    3.62751e+04    1.04049e+00
    1131.33963    3.62714e+04    1.03905e+00
    1132.16489    3.62443e+04    1.03789e+00
    1132.99010    3.62561e+04    1.03737e+00
    1133.81526    3.62710e+04    1.03823e+00
    1134.64037    3.62899e+04    1.03758e+00
    1135.46544    3.62691e+04    1.03799e+00
    1136.29046    3.62898e+04    1.03682e+00
    1137.11543    3.62404e+04    1.03587e+00
    1137.94035    3.61707e+04    1.03411e+00
    1138.76522    3.61817e+04    1.03500e+00
    1139.59005    3.62103e+04    1.03307e+00
    1140.41483    3.62367e+04    1.03522e+00
    1141.23956    3.62310e+04    1.03440e+00
    1142.06424    3.62420e+04    1.03374e+00
    1142.88888    3.62526e+04    1.03304e+00
    1143.71347    3.62476e+04    1.03193e+00
    1144.53801    3.62577e+04    1.03299e+00
    1145.36250    3.62620e+04    1.03303e+00
    1146.18694    3.62673e+04    1.03240e+00
    1147.01134    3.62609e+04    1.03099e+00
    1147.83568    3.63405e+04    1.03259e+00
    1148.65998    3.63400e+04    1.03110e+00
    1149.48423    3.63944e+04    1.03329e+00
    1150.30844    3.64067e+04    1.03195e+00
    1151.13259    3.64967e+04    1.03370e+00
    1151.95669    3.66530e+04    1.03438e+00
    1152.78075    3.68983e+04    1.03770e+00
    1153.60476    3.73851e+04    1.04393e+00
    1154.42872    3.86942e+04    1.06304e+00
    1155.25263    4.25141e+04    1.11280e+00
    1156.07650    5.47227e+04    1.26273e+00
    1156.90031    9.01462e+04    1.61864e+00
    1157.72408    1.56092e+05    2.12963e+00
    1158.54780    2.06559e+05    2.44915e+00
    1159.37147    1.86442e+05    2.32697e+00
    1160.19509    1.18544e+05    1.85495e+00
    1161.01866    6.64181e+04    1.38762e+00
    1161.84219    4.58812e+04    1.15236e+00
    1162.66566    3.96337e+04    1.07046e+00
    1163.48909    3.76302e+04    1.04341e+00
    1164.31247    3.69253e+04    1.03380e+00
    1165.13580    3.66009e+04    1.02799e+00
    1165.95908    3.63989e+04    1.02457e+00
    1166.78231    3.63263e+04    1.02356e+00
    1167.60549    3.62483e+04    1.02165e+00
    1168.42863    3.62019e+04    1.02129e+00
    1169.25171    3.61538e+04    1.01976e+00
    1170.07475    3.61762e+04    1.02054e+00
    1170.89773    3.61138e+04    1.01859e+00
    1171.72067    3.60762e+04    1.01757e+00
    1172.54356    3.60682e+04    1.01718e+00
    1173.36640    3.60611e+04    1.01653e+00
    1174.18919    3.60407e+04    1.01675e+00
    1175.01193    3.60027e+04    1.01570e+00
    1175.83463    3.59903e+04    1.01447e+00
    1176.65727    3.59736e+04    1.01344e+00
    1177.47986    3.59627e+04    1.01340e+00
    1178.30241    3.59361e+04    1.01298e+00
    1179.12491    3.58502e+04    1.01173e+00
    1179.94735    3.57452e+04    1.00955e+00
    1180.76975    3.56518e+04    1.00703e+00
    1181.59210    3.56896e+04    1.00757e+00
    1182.41440    3.57853e+04    1.00915e+00
    1183.23664    3.58638e+04    1.01020e+00
    1184.05884    3.59659e+04    1.01048e+00
    1184.88099    3.59086e+04    1.00993e+00
    1185.70309    3.59121e+04    1.00886e+00
    1186.52515    3.59013e+04    1.00867e+00
    1187.34715    3.58993e+04    1.00838e+00
    1188.16910    3.58793e+04    1.00779e+00
    1188.99100    3.58722e+04    1.00707e+00
    1189.81285    3.58592e+04    1.00732e+00
    1190.63466    3.58256e+04    1.00541e+00
    1191.45641    3.58580e+04    1.00615e+00
    1192.27811    3.58369e+04    1.00495e+00
    1193.09977    3.58340e+04    1.00524e+00
    1193.92137    3.58326e+04    1.00432e+00
    1194.74293    3.58105e+04    1.00398e+00
    1195.56443    3.57754e+04    1.00311e+00
    1196.38588    3.57720e+04    1.00255e+00
    1197.20729    3.57166e+04    1.00190e+00
    1198.02864    3.56697e+04    1.00002e+00
    1198.84995    3.56684e+04    1.00031e+00
    1199.67120    3.56517e+04    9.99533e-01
    1200.49241    3.56177e+04    9.98678e-01
    1201.31356    3.55741e+04    9.97439e-01
    1202.13467    3.55696e+04    9.99755e-01
    1202.95572    3.56167e+04    1.00344e+00
    1203.77673    3.56239e+04    1.00633e+00
    1204.59768    3.56676e+04    1.00774e+00
    1205.41858    3.57348e+04    1.01093e+00
    1206.23944    3.59368e+04    1.01415e+00
    1207.06024    3.66762e+04    1.02595e+00
    1207.88099    3.85771e+04    1.05233e+00
    1208.70170    4.50304e+04    1.14444e+00
    1209.52235    5.59899e+04    1.28037e+00
    1210.34295    6.34419e+04    1.36774e+00
    1211.16350    5.94841e+04    1.32578e+00
    1211.98400    4.85266e+04    1.20125e+00
    1212.80445    4.03077e+04    1.09685e+00
    1213.62486    3.70979e+04    1.05337e+00
    1214.44520    3.61152e+04    1.04218e+00
    1215.26550    3.57953e+04    1.03834e+00
    1216.08575    3.56757e+04    1.03899e+00
    1216.90595    3.56378e+04    1.03841e+00
    1217.72610    3.55824e+04    1.04068e+00
    1218.54619    3.55696e+04    1.04095e+00
    1219.36624    3.55512e+04    1.04245e+00
    1220.18624    3.55594e+04    1.04322e+00
    1221.00618    3.55102e+04    1.04469e+00
    1221.82607    3.54860e+04    1.04470e+00
    1222.64592    3.54372e+04    1.04584e+00
    1223.46571    3.53942e+04    1.04551e+00
    1224.28545    3.53619e+04    1.04642e+00
    1225.10514    3.51776e+04    1.04499e+00
    1225.92478    3.50573e+04    1.04742e+00
    1226.74437    3.51740e+04    1.05484e+00
    1227.56391    3.51863e+04    1.05842e+00
    1228.38339    3.51660e+04    1.06239e+00
    1229.20283    3.51811e+04    1.06426e+00
    1230.02221    3.51718e+04    1.06768e+00
    1230.84155    3.51850e+04    1.07085e+00
    1231.66083    3.52347e+04    1.07473e+00
    1232.48006    3.53574e+04    1.08346e+00
    1233.29924    3.53480e+04    1.09100e+00
    1234.11837    3.53210e+04    1.09433e+00
    1234.93745    3.53420e+04    1.10010e+00
    1235.75647    3.53450e+04    1.10334e+00
    1236.57545    3.53006e+04    1.10660e+00
    1237.39437    3.53265e+04    1.11025e+00
    1238.21324    3.53291e+04    1.11512e+00
    1239.03206    3.53743e+04    1.11822e+00
    1239.85083    3.53655e+04    1.12235e+00
    1240.66955    3.53528e+04    1.12526e+00
    1241.48822    3.53759e+04    1.12867e+00
    1242.30683    3.53763e+04    1.13102e+00
    1243.12540    3.53729e+04    1.13574e+00
    1243.94391    3.53843e+04    1.13758e+00
    1244.76237    3.53671e+04    1.14075e+00
    1245.58078    3.53969e+04    1.14452e+00
    1246.39913    3.54158e+04    1.14723e+00
    1247.21744    3.54246e+04    1.14985e+00
    1248.03569    3.54242e+04    1.15405e+00
    1248.85389    3.54401e+04    1.15529e+00
    1249.67204    3.54643e+04    1.16030e+00
    1250.49014    3.54746e+04    1.16244e+00
    1251.30819    3.54923e+04    1.16537e+00
    1252.12618    3.55652e+04    1.16789e+00
    1252.94413    3.56170e+04    1.17390e+00
    1253.76202    3.57219e+04    1.17686e+00
    1254.57986    3.59387e+04    1.18337e+00
    1255.39764    3.64582e+04    1.19487e+00
    1256.21538    3.78412e+04    1.21983e+00
    1257.03306    4.21978e+04    1.28948e+00
    1257.85069    5.56226e+04    1.48586e+00
    1258.66827    8.66621e+04    1.85799e+00
    1259.48580    1.25193e+05    2.23766e+00
    1260.30327    1.36394e+05    2.34011e+00
    1261.12070    1.07644e+05    2.08271e+00
    1261.93807    6.85503e+04    1.66650e+00
    1262.75539    4.65458e+04    1.37604e+00
    1263.57265    3.90382e+04    1.26235e+00
    1264.38987    3.68144e+04    1.22830e+00
    1265.20703    3.60737e+04    1.21893e+00
    1266.02414    3.57741e+04    1.21539e+00
    1266.84119    3.56145e+04    1.21614e+00
    1267.65820    3.54949e+04    1.21461e+00
    1268.47515    3.54680e+04    1.21910e+00
    1269.29205    3.54449e+04    1.21883e+00
    1270.10890    3.54337e+04    1.22308e+00
    1270.92569    3.54139e+04    1.22279e+00
    1271.74243    3.54045e+04    1.22688e+00
    1272.55912    3.53738e+04    1.22689e+00
    1273.37576    3.53574e+04    1.23081e+00
    1274.19234    3.53807e+04    1.23274e+00
    1275.00888    3.53158e+04    1.23491e+00
    1275.82535    3.53007e+04    1.23478e+00
    1276.64178    3.53089e+04    1.23886e+00
    1277.45815    3.53054e+04    1.24171e+00
    1278.27448    3.52859e+04    1.24170e+00
    1279.09074    3.52972e+04    1.24588e+00
    1279.90696    3.53046e+04    1.24754e+00
    1280.72312    3.52851e+04    1.24916e+00
    1281.53923    3.52774e+04    1.25193e+00
    1282.35529    3.53110e+04    1.25554e+00
    1283.17129    3.53123e+04    1.25534e+00
    1283.98724    3.52787e+04    1.25973e+00
    1284.80314    3.52841e+04    1.26002e+00
    1285.61899    3.53067e+04    1.26430e+00
    1286.43478    3.52764e+04    1.26459e+00
    1287.25052    3.52651e+04    1.26827e+00
    1288.06620    3.52706e+04    1.26840e+00
    1288.88184    3.52972e+04    1.27298e+00
    1289.69741    3.52917e+04    1.27473e+00
    1290.51294    3.52913e+04    1.27722e+00
    1291.32841    3.53117e+04    1.27951e+00
    1292.14383    3.53260e+04    1.28156e+00
    1292.95920    3.53416e+04    1.28363e+00
    1293.77452    3.53477e+04    1.28732e+00
    1294.58978    3.52910e+04    1.28952e+00
    1295.40498    3.53541e+04    1.29016e+00
    1296.22014    3.54035e+04    1.29472e+00
    1297.03524    3.53891e+04    1.29596e+00
    1297.85028    3.54267e+04    1.29934e+00
    1298.66528    3.55168e+04    1.30319e+00
    1299.48022    3.55713e+04    1.30695e+00
    1300.29510    3.56844e+04    1.31041e+00
    1301.10993    3.58076e+04    1.31628e+00
    1301.92471    3.60238e+04    1.32118e+00
    1302.73944    3.66008e+04    1.33411e+00
    1303.55411    3.83114e+04    1.36726e+00
    1304.36873    4.32454e+04    1.45555e+00
    1305.18330    5.86763e+04    1.69800e+00
    1305.99781    1.00959e+05    2.23384e+00
    1306.81226    1.76391e+05    2.95160e+00
    1307.62667    2.36887e+05    3.42542e+00
    1308.44102    2.21474e+05    3.32423e+00
    1309.25531    1.46007e+05    2.70333e+00
    1310.06956    7.93032e+04    1.99451e+00
    1310.88374    4.96677e+04    1.58035e+00
    1311.69788    4.03091e+04    1.42448e+00
    1312.51196    3.73583e+04    1.37576e+00
    1313.32599    3.62561e+04    1.35782e+00
    1314.13996    3.58498e+04    1.35333e+00
    1314.95388    3.57069e+04    1.35115e+00
    1315.76774    3.55440e+04    1.35017e+00
    1316.58155    3.54509e+04    1.34975e+00
    1317.39531    3.53569e+04    1.35263e+00
    1318.20901    3.52662e+04    1.35278e+00
    1319.02266    3.52258e+04    1.35359e+00
    1319.83625    3.52027e+04    1.35568e+00
    1320.64979    3.51619e+04    1.35724e+00
    1321.46328    3.51415e+04    1.35727e+00
    1322.27671    3.51543e+04    1.36105e+00
    1323.09009    3.50882e+04    1.36236e+00
    1323.90341    3.50780e+04    1.36451e+00
    1324.71668    3.50184e+04    1.36615e+00
    1325.52989    3.50387e+04    1.36654e+00
    1326.34305    3.50050e+04    1.36844e+00
    1327.15616    3.49851e+04    1.37040e+00
    1327.96921    3.49417e+04    1.37469e+00
    1328.78221    3.49526e+04    1.37512e+00
    1329.59515    3.49469e+04    1.37860e+00
    1330.40804    3.49869e+04    1.37804e+00
    1331.22087    3.49336e+04    1.38161e+00
    1332.03365    3.49048e+04    1.38172e+00
    1332.84637    3.49447e+04    1.38886e+00
    1333.65904    3.49253e+04    1.38783e+00
    1334.47166    3.49237e+04    1.39145e+00
    1335.28422    3.48668e+04    1.38889e+00
    1336.09672    3.48520e+04    1.39466e+00
    1336.90917    3.48662e+04    1.39401e+00
    1337.72157    3.48756e+04    1.40089e+00
    1338.53391    3.48448e+04    1.40055e+00
    1339.34620    3.47817e+04    1.40094e+00
    1340.15843    3.47561e+04    1.40133e+00
    1340.97060    3.47099e+04    1.40386e+00
    1341.78273    3.47221e+04    1.40614e+00
    1342.59479    3.48475e+04    1.41250e+00
    1343.40680    3.48499e+04    1.41580e+00
    1344.21876    3.49480e+04    1.41714e+00
    1345.03066    3.49062e+04    1.41890e+00
    1345.84251    3.48955e+04    1.42016e+00
    1346.65430    3.48692e+04    1.42424e+00
    1347.46604    3.48406e+04    1.42585e+00
    1348.27772    3.47967e+04    1.42876e+00
    1349.08935    3.47685e+04    1.42638e+00
    1349.90092    3.47487e+04    1.43004e+00
    1350.71243    3.47226e+04    1.43076e+00
    1351.52389    3.47349e+04    1.43555e+00
    1352.33530    3.47577e+04    1.43910e+00
    1353.14665    3.47196e+04    1.44046e+00
    1353.95795    3.47316e+04    1.43933e+00
    1354.76918    3.47165e+04    1.44346e+00
    1355.58037    3.46484e+04    1.44291e+00
    1356.39150    3.46547e+04    1.44805e+00
    1357.20257    3.46501e+04    1.45011e+00
    1358.01359    3.46690e+04    1.45412e+00
    1358.82455    3.46995e+04    1.45268e+00
    1359.63546    3.46752e+04    1.45643e+00
    1360.44631    3.46649e+04    1.45760e+00
    1361.25711    3.46594e+04    1.46242e+00
    1362.06785    3.46360e+04    1.46455e+00
    1362.87853    3.46184e+04    1.46736e+00
    1363.68916    3.46191e+04    1.46410e+00
    1364.49974    3.46222e+04    1.46877e+00
    1365.31025    3.46319e+04    1.47353e+00
    1366.12072    3.45900e+04    1.47616e+00
    1366.93112    3.45861e+04    1.47654e+00
    1367.74147    3.45878e+04    1.48012e+00
    1368.55177    3.46203e+04    1.47904e+00
    1369.36201    3.45725e+04    1.48328e+00
    1370.17219    3.45403e+04    1.48585e+00
    1370.98232    3.45868e+04    1.48961e+00
    1371.79239    3.45844e+04    1.49109e+00
    1372.60241    3.45433e+04    1.49328e+00
    1373.41237    3.45268e+04    1.49418e+00
    1374.22227    3.45369e+04    1.49629e+00
    1375.03212    3.45272e+04    1.49870e+00
    1375.84191    3.45406e+04    1.50360e+00
    1376.65165    3.45198e+04    1.50457e+00
    1377.46133    3.44836e+04    1.50879e+00
    1378.27095    3.44418e+04    1.50569e+00
    1379.08052    3.44714e+04    1.50827e+00
    1379.89003    3.44848e+04    1.51322e+00
    1380.69948    3.44627e+04    1.51803e+00
    1381.50888    3.44944e+04    1.51919e+00
    1382.31823    3.44789e+04    1.52094e+00
    1383.12751    3.45097e+04    1.52233e+00
    1383.93674    3.44819e+04    1.52536e+00
    1384.74592    3.45285e+04    1.53120e+00
    1385.55503    3.45000e+04    1.53301e+00
    1386.36410    3.45075e+04    1.53339e+00
    1387.17310    3.44968e+04    1.53619e+00
    1387.98205    3.45131e+04    1.53924e+00
    1388.79094    3.45624e+04    1.54326e+00
    1389.59978    3.45185e+04    1.54537e+00
    1390.40856    3.45607e+04    1.54787e+00
    1391.21728    3.45196e+04    1.55012e+00
    1392.02594    3.45626e+04    1.55374e+00
    1392.83455    3.45547e+04    1.55622e+00
    1393.64311    3.47055e+04    1.56120e+00
    1394.45160    3.50400e+04    1.57153e+00
    1395.26004    3.59982e+04    1.59743e+00
    1396.06843    3.90009e+04    1.66402e+00
    1396.87675    4.64458e+04    1.82057e+00
    1397.68502    5.82614e+04    2.03918e+00
    1398.49323    6.64688e+04    2.18292e+00
    1399.30139    6.29286e+04    2.12857e+00
    1400.10949    5.10238e+04    1.91987e+00
    1400.91753    4.09976e+04    1.72505e+00
    1401.72552    3.65966e+04    1.63072e+00
    1402.53344    3.52407e+04    1.60297e+00
    1403.34132    3.47794e+04    1.59588e+00
    1404.14913    3.46461e+04    1.59574e+00
    1404.95689    3.45223e+04    1.59588e+00
    1405.76459    3.44826e+04    1.59702e+00
    1406.57223    3.44294e+04    1.59798e+00
    1407.37982    3.44303e+04    1.60062e+00
    1408.18735    3.44405e+04    1.60528e+00
    1408.99482    3.44369e+04    1.60772e+00
    1409.80224    3.44098e+04    1.60872e+00
    1410.60960    3.44323e+04    1.61143e+00
    1411.41690    3.43926e+04    1.61403e+00
    1412.22414    3.43890e+04    1.61868e+00
    1413.03133    3.43261e+04    1.61843e+00
    1413.83846    3.42590e+04    1.61982e+00
    1414.64553    3.42765e+04    1.62085e+00
    1415.45254    3.42775e+04    1.62630e+00
    1416.25950    3.43150e+04    1.62908e+00
    1417.06640    3.43479e+04    1.63480e+00
    1417.87324    3.43996e+04    1.63571e+00
    1418.68003    3.43810e+04    1.63961e+00
    1419.48676    3.43561e+04    1.64172e+00
    1420.29343    3.43989e+04    1.64655e+00
    1421.10004    3.43811e+04    1.64736e+00
    1421.90659    3.43429e+04    1.65121e+00
    1422.71309    3.43648e+04    1.65305e+00
    1423.51953    3.43425e+04    1.65720e+00
    1424.32592    3.43867e+04    1.65846e+00
    1425.13224    3.43766e+04    1.66402e+00
    1425.93851    3.44104e+04    1.66463e+00
    1426.74472    3.43979e+04    1.67141e+00
    1427.55087    3.43550e+04    1.67037e+00
    1428.35696    3.44072e+04    1.67539e+00
    1429.16300    3.43892e+04    1.67727e+00
    1429.96898    3.44531e+04    1.68262e+00
    1430.77490    3.44647e+04    1.68603e+00
    1431.58076    3.44843e+04    1.69210e+00
    1432.38657    3.44818e+04    1.69105e+00
    1433.19232    3.45351e+04    1.69701e+00
    1433.99801    3.46142e+04    1.69973e+00
    1434.80364    3.47017e+04    1.70809e+00
    1435.60921    3.48871e+04    1.71416e+00
    1436.41473    3.52389e+04    1.72862e+00
    1437.22019    3.59999e+04    1.74681e+00
    1438.02559    3.81489e+04    1.80371e+00
    1438.83093    4.48773e+04    1.95715e+00
    1439.63621    6.45584e+04    2.35404e+00
    1440.44144    1.06979e+05    3.03866e+00
    1441.24660    1.59361e+05    3.71643e+00
    1442.05171    1.79645e+05    3.94673e+00
    1442.85677    1.46985e+05    3.57401e+00
    1443.66176    9.20482e+04    2.83757e+00
    1444.46669    5.55185e+04    2.20798e+00
    1445.27157    4.13308e+04    1.90919e+00
    1446.07639    3.69086e+04    1.80696e+00
    1446.88115    3.54261e+04    1.77108e+00
    1447.68585    3.49000e+04    1.76429e+00
    1448.49049    3.46002e+04    1.76071e+00
    1449.29508    3.44226e+04    1.75579e+00
    1450.09960    3.42770e+04    1.75799e+00
    1450.90407    3.42024e+04    1.75909e+00
    1451.70848    3.42180e+04    1.76324e+00
    1452.51283    3.42848e+04    1.76625e+00
    1453.31712    3.42733e+04    1.77079e+00
    1454.12136    3.42590e+04    1.77343e+00
    1454.92553    3.42543e+04    1.77739e+00
    1455.72965    3.42054e+04    1.77990e+00
    1456.53371    3.41943e+04    1.78226e+00
    1457.33771    3.41943e+04    1.78400e+00
    1458.14165    3.41714e+04    1.79075e+00
    1458.94553    3.41930e+04    1.79274e+00
    1459.74935    3.42221e+04    1.79562e+00
    1460.55312    3.42531e+04    1.80136e+00
    1461.35683    3.42536e+04    1.80651e+00
    1462.16047    3.42202e+04    1.80615e+00
    1462.96406    3.42460e+04    1.81184e+00
    1463.76759    3.41538e+04    1.81411e+00
    1464.57106    3.41564e+04    1.81417e+00
    1465.37447    3.41278e+04    1.82089e+00
    1466.17783    3.40886e+04    1.82303e+00
    1466.98112    3.40833e+04    1.82334e+00
    1467.78436    3.41178e+04    1.83043e+00
    1468.58753    3.40759e+04    1.83327e+00
    1469.39065    3.40903e+04    1.83302e+00
    1470.19371    3.41246e+04    1.84223e+00
    1470.99671    3.40794e+04    1.84689e+00
    1471.79965    3.40830e+04    1.84560e+00
    1472.60253    3.40456e+04    1.85136e+00
    1473.40535    3.41078e+04    1.85408e+00
    1474.20811    3.41531e+04    1.86000e+00
    1475.01081    3.41333e+04    1.86371e+00
    1475.81346    3.41766e+04    1.87099e+00
    1476.61604    3.42234e+04    1.87333e+00
    1477.41857    3.43199e+04    1.88226e+00
    1478.22103    3.45120e+04    1.88771e+00
    1479.02344    3.50853e+04    1.90658e+00
    1479.82579    3.62563e+04    1.94520e+00
    1480.62808    3.99665e+04    2.05077e+00
    1481.43031    5.12960e+04    2.32187e+00
    1482.23248    7.84852e+04    2.88296e+00
    1483.03459    1.19516e+05    3.55422e+00
    1483.83664    1.47159e+05    3.95331e+00
    1484.63863    1.35037e+05    3.80418e+00
    1485.44056    9.45102e+04    3.19232e+00
    1486.24243    5.88495e+04    2.51933e+00
    1487.04424    4.22358e+04    2.14111e+00
    1487.84600    3.67966e+04    1.99741e+00
    1488.64769    3.50990e+04    1.95685e+00
    1489.44932    3.44902e+04    1.94597e+00
    1490.25090    3.42430e+04    1.94799e+00
    1491.05241    3.41647e+04    1.94468e+00
    1491.85387    3.40388e+04    1.94725e+00
    1492.65526    3.40132e+04    1.94424e+00
    1493.45660    3.39534e+04    1.95035e+00
    1494.25787    3.39454e+04    1.95704e+00
    1495.05909    3.38884e+04    1.96216e+00
    1495.86024    3.38378e+04    1.96371e+00
    1496.66134    3.38203e+04    1.96197e+00
    1497.46238    3.38117e+04    1.96643e+00
    1498.26335    3.37934e+04    1.97041e+00
    1499.06427    3.37727e+04    1.98111e+00
    1499.86512    3.37302e+04    1.98355e+00
    1500.66592    3.37321e+04    1.98627e+00
    1501.46666    3.36495e+04    1.98256e+00
    1502.26733    3.36647e+04    1.98871e+00
    1503.06795    3.36973e+04    1.99613e+00
    1503.86850    3.36710e+04    2.00498e+00
    1504.66900    3.36972e+04    2.01008e+00
    1505.46944    3.36804e+04    2.01175e+00
    1506.26981    3.36655e+04    2.01131e+00
    1507.07013    3.36249e+04    2.01361e+00
    1507.87038    3.35788e+04    2.01979e+00
    1508.67058    3.36273e+04    2.02990e+00
    1509.47071    3.35737e+04    2.03716e+00
    1510.27079    3.36040e+04    2.03657e+00
    1511.07080    3.36018e+04    2.03738e+00
    1511.87076    3.35688e+04    2.04004e+00
    1512.67065    3.35919e+04    2.05030e+00
    1513.47048    3.36014e+04    2.05924e+00
    1514.27026    3.35472e+04    2.06331e+00
    1515.06997    3.36215e+04    2.06848e+00
    1515.86962    3.36846e+04    2.06766e+00
    1516.66921    3.36056e+04    2.07103e+00
    1517.46874    3.36133e+04    2.07965e+00
    1518.26821    3.36614e+04    2.09234e+00
    1519.06762    3.37650e+04    2.10034e+00
    1519.86697    3.38746e+04    2.10553e+00
    1520.66626    3.42764e+04    2.11646e+00
    1521.46549    3.55991e+04    2.16513e+00
    1522.26466    3.94817e+04    2.28769e+00
    1523.06376    4.88881e+04    2.55704e+00
    1523.86281    6.38177e+04    2.92935e+00
    1524.66180    7.54267e+04    3.19003e+00
    1525.46072    7.32052e+04    3.14355e+00
    1526.25958    5.88237e+04    2.82382e+00
    1527.05839    4.43920e+04    2.46245e+00
    1527.85713    3.71841e+04    2.26626e+00
    1528.65581    3.46774e+04    2.19005e+00
    1529.45443    3.39022e+04    2.17311e+00
    1530.25299    3.36643e+04    2.16216e+00
    1531.05149    3.35701e+04    2.16667e+00
    1531.84993    3.34559e+04    2.17166e+00
    1532.64831    3.33782e+04    2.18427e+00
    1533.44662    3.34507e+04    2.18135e+00
    1534.24488    3.34765e+04    2.19282e+00
    1535.04307    3.34462e+04    2.19088e+00
    1535.84120    3.34143e+04    2.19599e+00
    1536.63928    3.34398e+04    2.20753e+00
    1537.43729    3.34152e+04    2.22002e+00
    1538.23524    3.34159e+04    2.21466e+00
    1539.03313    3.33769e+04    2.22483e+00
    1539.83095    3.33575e+04    2.22402e+00
    1540.62872    3.34291e+04    2.23204e+00
    1541.42642    3.34148e+04    2.24600e+00
    1542.22407    3.33345e+04    2.24891e+00
    1543.02165    3.34122e+04    2.25358e+00
    1543.81917    3.33337e+04    2.26075e+00
    1544.61663    3.32856e+04    2.25790e+00
    1545.41403    3.32824e+04    2.26614e+00
    1546.21137    3.32492e+04    2.27769e+00
    1547.00864    3.32752e+04    2.28322e+00
    1547.80586    3.32729e+04    2.28925e+00
    1548.60301    3.32861e+04    2.29750e+00
    1549.40010    3.32940e+04    2.29540e+00
    1550.19713    3.32632e+04    2.30716e+00
    1550.99410    3.32094e+04    2.31737e+00
    1551.79101    3.32566e+04    2.32127e+00
    1552.58785    3.32602e+04    2.32725e+00
    1553.38464    3.32181e+04    2.33588e+00
    1554.18136    3.32037e+04    2.33441e+00
    1554.97802    3.32008e+04    2.34511e+00
    1555.77462    3.32941e+04    2.36273e+00
    1556.57116    3.33586e+04    2.36364e+00
    1557.36763    3.33413e+04    2.37599e+00
    1558.16405    3.34616e+04    2.38736e+00
    1558.96040    3.35206e+04    2.38641e+00
    1559.75669    3.37177e+04    2.40799e+00
    1560.55292    3.42941e+04    2.44175e+00
    1561.34909    3.59366e+04    2.49801e+00
    1562.14519    4.11712e+04    2.69040e+00
    1562.94124    5.36783e+04    3.07550e+00
    1563.73722    7.36927e+04    3.61214e+00
    1564.53314    8.95015e+04    3.99709e+00
    1565.32899    8.72757e+04    3.97304e+00
    1566.12479    6.83769e+04    3.50622e+00
    1566.92052    4.88199e+04    2.98448e+00
    1567.71619    3.85898e+04    2.66144e+00
    1568.51180    3.50087e+04    2.53728e+00
    1569.30735    3.39680e+04    2.51646e+00
    1570.10284    3.34695e+04    2.50424e+00
    1570.89826    3.33116e+04    2.49692e+00
    1571.69362    3.32012e+04    2.50999e+00
    1572.48892    3.31562e+04    2.51450e+00
    1573.28416    3.32382e+04    2.52556e+00
    1574.07933    3.31309e+04    2.53269e+00
    1574.87445    3.31772e+04    2.54582e+00
    1575.66950    3.31496e+04    2.54203e+00
    1576.46449    3.32199e+04    2.56176e+00
    1577.25941    3.31196e+04    2.56448e+00
    1578.05427    3.31179e+04    2.57698e+00
    1578.84908    3.30779e+04    2.58191e+00
    1579.64382    3.30084e+04    2.59176e+00
    1580.43849    3.30525e+04    2.59560e+00
    1581.23311    3.30891e+04    2.61253e+00
    1582.02766    3.30826e+04    2.61659e+00
    1582.82215    3.30264e+04    2.63545e+00
    1583.61657    3.29233e+04    2.62775e+00
    1584.41094    3.29135e+04    2.64517e+00
    1585.20524    3.29777e+04    2.64803e+00
    1585.99948    3.30081e+04    2.66919e+00
    1586.79366    3.29913e+04    2.67052e+00
    1587.58777    3.29630e+04    2.69662e+00
    1588.38182    3.29699e+04    2.68773e+00
    1589.17581    3.29935e+04    2.70774e+00
    1589.96974    3.29644e+04    2.71077e+00
    1590.76360    3.30372e+04    2.72963e+00
    1591.55740    3.29893e+04    2.73692e+00
    1592.35114    3.30025e+04    2.76045e+00
    1593.14482    3.30677e+04    2.75555e+00
    1593.93843    3.31072e+04    2.77703e+00
    1594.73198    3.30447e+04    2.78155e+00
    1595.52547    3.31261e+04    2.79777e+00
    1596.31889    3.31994e+04    2.81319e+00
    1597.11225    3.32921e+04    2.84023e+00
    1597.90555    3.34634e+04    2.84134e+00
    1598.69879    3.38670e+04    2.87512e+00
    1599.49196    3.49792e+04    2.93667e+00
    1600.28507    3.84400e+04    3.09266e+00
    1601.07812    4.87307e+04    3.49649e+00
    1601.87110    7.31646e+04    4.31858e+00
    1602.66402    1.10858e+05    5.30709e+00
    1603.45688    1.40062e+05    6.00124e+00
    1604.24967    1.35318e+05    5.92930e+00
    1605.04241    1.00183e+05    5.12380e+00
    1605.83507    6.31901e+04    4.09569e+00
    1606.62768    4.33312e+04    3.40062e+00
    1607.42022    3.62853e+04    3.12694e+00
    1608.21270    3.41736e+04    3.04652e+00
    1609.00512    3.33671e+04    3.02435e+00
    1609.79747    3.30902e+04    3.02926e+00
    1610.58976    3.29356e+04    3.03823e+00
    1611.38199    3.28757e+04    3.04530e+00
    1612.17415    3.27834e+04    3.05963e+00
    1612.96625    3.27055e+04    3.06652e+00
    1613.75828    3.27688e+04    3.08864e+00
    1614.55026    3.26102e+04    3.09470e+00
    1615.34217    3.26062e+04    3.11146e+00
    1616.13401    3.25445e+04    3.12012e+00
    1616.92580    3.23888e+04    3.13809e+00
    1617.71752    3.23544e+04    3.14360e+00
    1618.50917    3.24716e+04    3.17067e+00
    1619.30076    3.24695e+04    3.18689e+00
    1620.09229    3.24399e+04    3.19595e+00
    1620.88376    3.23452e+04    3.20952e+00
    1621.67516    3.23767e+04    3.24273e+00
    1622.46650    3.23071e+04    3.24241e+00
    1623.25777    3.24014e+04    3.27768e+00
    1624.04898    3.23105e+04    3.28508e+00
    1624.84013    3.23264e+04    3.29139e+00
    1625.63121    3.23161e+04    3.31540e+00
    1626.42223    3.23565e+04    3.36061e+00
    1627.21319    3.23713e+04    3.35670e+00
    1628.00408    3.23313e+04    3.38840e+00
    1628.79491    3.23627e+04    3.40215e+00
    1629.58568    3.23100e+04    3.40304e+00
    1630.37638    3.22940e+04    3.43623e+00
    1631.16702    3.23120e+04    3.48727e+00
    1631.95759    3.22517e+04    3.47488e+00
    1632.74810    3.23642e+04    3.52003e+00
    1633.53854    3.22218e+04    3.51834e+00
    1634.32893    3.22496e+04    3.53551e+00
    1635.11924    3.22132e+04    3.56404e+00
    1635.90950    3.22111e+04    3.62890e+00
    1636.69969    3.24900e+04    3.62096e+00
    1637.48981    3.29188e+04    3.70199e+00
    1638.27988    3.44579e+04    3.77890e+00
    1639.06987    3.85349e+04    4.02045e+00
    1639.85981    4.89156e+04    4.57798e+00
    1640.64968    6.52529e+04    5.38888e+00
    1641.43948    7.94441e+04    5.91456e+00
    1642.22922    7.90925e+04    6.01097e+00
    1643.01890    6.41687e+04    5.36425e+00
    1643.80851    4.68409e+04    4.63112e+00
    1644.59806    3.69632e+04    4.16089e+00
    1645.38755    3.34224e+04    4.03384e+00
    1646.17697    3.24782e+04    3.97549e+00
    1646.96632    3.20903e+04    4.00264e+00
    1647.75562    3.19084e+04    3.96465e+00
    1648.54484    3.17794e+04    4.00223e+00
    1649.33401    3.16614e+04    4.04401e+00
    1650.12310    3.17153e+04    4.13265e+00
    1650.91214    3.16370e+04    4.13311e+00
    1651.70111    3.16229e+04    4.18333e+00
    1652.49001    3.16988e+04    4.16308e+00
    1653.27886    3.17183e+04    4.21183e+00
    1654.06763    3.15820e+04    4.26894e+00
    1654.85634    3.13745e+04    4.34876e+00
    1655.64499    3.13789e+04    4.37152e+00
    1656.43357    3.14354e+04    4.40506e+00
    1657.22209    3.15078e+04    4.39254e+00
    1658.01055    3.12481e+04    4.43595e+00
    1658.79894    3.12958e+04    4.51385e+00
    1659.58726    3.11935e+04    4.61438e+00
    1660.37552    3.10682e+04    4.67421e+00
    1661.16372    3.10555e+04    4.64557e+00
    1661.95185    3.09792e+04    4.64147e+00
    1662.73991    3.08797e+04    4.70152e+00
    1663.52791    3.10191e+04    4.81129e+00
    1664.31585    3.10612e+04    4.93963e+00
    1665.10372    3.09568e+04    5.05182e+00
    1665.89153    3.06557e+04    4.96216e+00
    1666.67927    3.06446e+04    4.97930e+00
    1667.46695    3.04649e+04    5.04701e+00
    1668.25456    3.02920e+04    5.13011e+00
    1669.04211    2.99718e+04    5.27531e+00
    1669.82959    2.99284e+04    5.41413e+00
    1670.61701    2.94632e+04    5.30984e+00
    1671.40436    2.92690e+04    5.31013e+00
    1672.19165    2.93134e+04    5.42777e+00
    1672.97887    2.92876e+04    5.54074e+00
    1673.76603    2.91938e+04    5.72731e+00
    1674.55312    2.94710e+04    5.89174e+00
    1675.34015    2.90338e+04    5.90023e+00
    1676.12711    2.92589e+04    5.91597e+00
    1676.91401    2.93710e+04    6.08587e+00
    1677.70084    2.95139e+04    6.26476e+00
    1678.48761    2.94688e+04    6.46527e+00
    1679.27431    2.94609e+04    6.62616e+00
    1680.06095    2.95459e+04    6.85367e+00
    1680.84752    2.95890e+04    6.81012e+00
    1681.63403    2.93434e+04    6.95856e+00
    1682.42047    2.91949e+04    7.14423e+00
    1683.20684    2.89025e+04    7.25573e+00
    1683.99315    2.87867e+04    7.49826e+00
    1684.77940    2.86531e+04    7.73425e+00
    1685.56558    2.89685e+04    7.70465e+00
    1686.35169    2.84793e+04    7.90282e+00
    1687.13774    2.83180e+04    8.11516e+00
    1687.92373    2.79812e+04    8.35336e+00
    1688.70965    2.72552e+04    8.67702e+00
    1689.49550    2.70000e+04    8.96422e+00
    1690.28129    2.72862e+04    8.89328e+00
    1691.06701    2.75967e+04    9.38980e+00
    1691.85266    2.78999e+04    9.89416e+00
    1692.63825    2.77196e+04    1.02469e+01
    1693.42378    2.81696e+04    1.09022e+01
    1694.20924    2.63462e+04    1.12276e+01
    1694.99463    2.71655e+04    1.09154e+01
    1695.77996    2.66595e+04    1.12672e+01
    1696.56522    2.61060e+04    1.16606e+01
    1697.35042    2.69316e+04    1.27373e+01
    1698.13555    2.59230e+04    1.31461e+01
    1698.92062    2.55158e+04    1.53707e+01
    1699.70562    2.65178e+04    1.45072e+01
    1700.49055    2.57321e+04    1.50240e+01
    1701.27542    2.44553e+04    1.52613e+01
    1702.06023    2.38408e+04    1.57589e+01
    1702.84496    2.26945e+04    1.61510e+01
    1703.62963    2.15025e+04    1.81881e+01
    1704.41424    2.18719e+04    1.90927e+01
    1705.19878    2.00246e+04    1.78284e+01
    1705.98325    1.85947e+04    1.85566e+01
    1706.76766    1.78178e+04    1.98985e+01
    1707.55200    1.68329e+04    2.16236e+01
    1708.33628    1.50433e+04    2.36042e+01
    1709.12049    1.19117e+04    3.02702e+01
    1709.90463    8.31850e+03    2.63288e+01
    1710.68871    0.00000e+00    0.00000e+00
    1711.47272    0.00000e+00    0.00000e+00
    1712.25667    0.00000e+00    0.00000e+00
    1713.04054    0.00000e+00    0.00000e+00
