# {
#   "package": "midas_integrate_v2",
#   "version": "0.5.1",
#   "timestamp_iso": "2026-08-21T15:35:55.480189+00:00",
#   "integrate_mode": "subpixel",
#   "integrate_K": 2,
#   "n_r_bins": 2048,
#   "n_eta_bins": 72,
#   "spec_summary": {
#     "Lsd_um": 1001310.2146589451,
#     "BC_y_px": 1458.3370141825108,
#     "BC_z_px": 1428.090050749613,
#     "tx_deg": 0.0,
#     "ty_deg": 0.1313366821314741,
#     "tz_deg": -0.13185910779113685,
#     "Parallax_um": 0.0,
#     "Wavelength_A": 0.25302897639428623,
#     "pxY_um": 150.0,
#     "pxZ_um": 150.0,
#     "NrPixelsY": 2880,
#     "NrPixelsZ": 2880,
#     "RhoD_px": 308573.2439386016,
#     "RBinSize_px": 1.0,
#     "EtaBinSize_deg": 5.0,
#     "TransOpt": [],
#     "spec_hash": "349d4275c036ac5f"
#   }
# }
# x  y  error  (XYE format for Rietveld)
9.012270e-02 2.021755e+03 2.813414e+00
9.870580e-02 1.822244e+03 2.569986e+00
1.072889e-01 1.810773e+03 2.427504e+00
1.158720e-01 2.019994e+03 2.470839e+00
1.244551e-01 1.906866e+03 2.344191e+00
1.330381e-01 1.792556e+03 2.166156e+00
1.416212e-01 2.133002e+03 2.288719e+00
1.502043e-01 2.407769e+03 2.370948e+00
1.587873e-01 2.743814e+03 2.439125e+00
1.673704e-01 3.180631e+03 2.570267e+00
1.759534e-01 3.981606e+03 2.812164e+00
1.845365e-01 4.647268e+03 2.932574e+00
1.931195e-01 5.765968e+03 3.191251e+00
2.017025e-01 6.301606e+03 3.281672e+00
2.102855e-01 7.056771e+03 3.377009e+00
2.188685e-01 8.055641e+03 3.547747e+00
2.274515e-01 8.456983e+03 3.582940e+00
2.360345e-01 8.588346e+03 3.513000e+00
2.446175e-01 8.676680e+03 3.468255e+00
2.532004e-01 8.542724e+03 3.414441e+00
2.617834e-01 8.290251e+03 3.283986e+00
2.703663e-01 8.211109e+03 3.223963e+00
2.789492e-01 7.838494e+03 3.101592e+00
2.875321e-01 7.769400e+03 3.033661e+00
2.961150e-01 7.454972e+03 2.933222e+00
3.046979e-01 7.643328e+03 2.943291e+00
3.132808e-01 7.555027e+03 2.863971e+00
3.218637e-01 7.611007e+03 2.849210e+00
3.304465e-01 7.599844e+03 2.799410e+00
3.390293e-01 7.404849e+03 2.732386e+00
3.476121e-01 7.505991e+03 2.706750e+00
3.561949e-01 7.626263e+03 2.710836e+00
3.647777e-01 7.584880e+03 2.661213e+00
3.733605e-01 7.450169e+03 2.616357e+00
3.819432e-01 7.546917e+03 2.595186e+00
3.905260e-01 7.597860e+03 2.579303e+00
3.991087e-01 7.622014e+03 2.553660e+00
4.076914e-01 7.684409e+03 2.537215e+00
4.162741e-01 7.771281e+03 2.525221e+00
4.248567e-01 7.787681e+03 2.500339e+00
4.334394e-01 7.919398e+03 2.500742e+00
4.420220e-01 7.987570e+03 2.484961e+00
4.506046e-01 7.915449e+03 2.449845e+00
4.591872e-01 7.885073e+03 2.419324e+00
4.677697e-01 7.934315e+03 2.411316e+00
4.763523e-01 8.054293e+03 2.409718e+00
4.849348e-01 8.038534e+03 2.373414e+00
4.935173e-01 8.131648e+03 2.373324e+00
5.020997e-01 8.173152e+03 2.358183e+00
5.106822e-01 8.201290e+03 2.336771e+00
5.192646e-01 8.326651e+03 2.347676e+00
5.278470e-01 8.448403e+03 2.339377e+00
5.364294e-01 8.567920e+03 2.331140e+00
5.450118e-01 8.932298e+03 2.366092e+00
5.535941e-01 9.007316e+03 2.360417e+00
5.621764e-01 9.397305e+03 2.384242e+00
5.707587e-01 9.782750e+03 2.427700e+00
5.793409e-01 1.017416e+04 2.446454e+00
5.879232e-01 1.059132e+04 2.477357e+00
5.965054e-01 1.116170e+04 2.531019e+00
6.050875e-01 1.160777e+04 2.561827e+00
6.136697e-01 1.241034e+04 2.624641e+00
6.222518e-01 1.299586e+04 2.679762e+00
6.308339e-01 1.370783e+04 2.720595e+00
6.394160e-01 1.440038e+04 2.768367e+00
6.479980e-01 1.527376e+04 2.835387e+00
6.565800e-01 1.600279e+04 2.889388e+00
6.651620e-01 1.699518e+04 2.950110e+00
6.737440e-01 1.817591e+04 3.041353e+00
6.823259e-01 1.925295e+04 3.101915e+00
6.909078e-01 2.075728e+04 3.203354e+00
6.994896e-01 2.224699e+04 3.289456e+00
7.080714e-01 2.380204e+04 3.396702e+00
7.166532e-01 2.542343e+04 3.471205e+00
7.252350e-01 2.703668e+04 3.572903e+00
7.338167e-01 2.858458e+04 3.648798e+00
7.423984e-01 2.981498e+04 3.702436e+00
7.509801e-01 3.102982e+04 3.751330e+00
7.595617e-01 3.215600e+04 3.811029e+00
7.681433e-01 3.309283e+04 3.829988e+00
7.767249e-01 3.413749e+04 3.877956e+00
7.853064e-01 3.497280e+04 3.900279e+00
7.938879e-01 3.580127e+04 3.923236e+00
8.024694e-01 3.652723e+04 3.939174e+00
8.110508e-01 3.712589e+04 3.953727e+00
8.196322e-01 3.766800e+04 3.961692e+00
8.282135e-01 3.809241e+04 3.964176e+00
8.367948e-01 3.858650e+04 3.973444e+00
8.453761e-01 3.867895e+04 3.948426e+00
8.539573e-01 3.891562e+04 3.940683e+00
8.625385e-01 3.906409e+04 3.935649e+00
8.711197e-01 3.928102e+04 3.927916e+00
8.797008e-01 3.946221e+04 3.907909e+00
8.882819e-01 3.959985e+04 3.909427e+00
8.968629e-01 3.952316e+04 3.873628e+00
9.054439e-01 3.961218e+04 3.861894e+00
9.140249e-01 3.964099e+04 3.856046e+00
9.226058e-01 3.972766e+04 3.839433e+00
9.311867e-01 3.985217e+04 3.815129e+00
9.397675e-01 3.989520e+04 3.808851e+00
9.483483e-01 3.991784e+04 3.783878e+00
9.569290e-01 4.000650e+04 3.779952e+00
9.655097e-01 4.002617e+04 3.770125e+00
9.740904e-01 3.998821e+04 3.743165e+00
9.826710e-01 4.004530e+04 3.728243e+00
9.912516e-01 3.996262e+04 3.709613e+00
9.998321e-01 4.003132e+04 3.693770e+00
1.008413e+00 4.012564e+04 3.683709e+00
1.016993e+00 4.009377e+04 3.674178e+00
1.025573e+00 4.007337e+04 3.653005e+00
1.034154e+00 4.016246e+04 3.638932e+00
1.042734e+00 4.016814e+04 3.630224e+00
1.051314e+00 4.027703e+04 3.615034e+00
1.059895e+00 4.024722e+04 3.602608e+00
1.068475e+00 4.018561e+04 3.584280e+00
1.077055e+00 4.019883e+04 3.570063e+00
1.085635e+00 4.023642e+04 3.556541e+00
1.094215e+00 4.031453e+04 3.549407e+00
1.102795e+00 4.039750e+04 3.532148e+00
1.111375e+00 4.038022e+04 3.522699e+00
1.119955e+00 4.042270e+04 3.513770e+00
1.128534e+00 4.054784e+04 3.504252e+00
1.137114e+00 4.060726e+04 3.487857e+00
1.145694e+00 4.058643e+04 3.476563e+00
1.154274e+00 4.056550e+04 3.466901e+00
1.162853e+00 4.055844e+04 3.450788e+00
1.171433e+00 4.056341e+04 3.436401e+00
1.180012e+00 4.062214e+04 3.432399e+00
1.188592e+00 4.058109e+04 3.415345e+00
1.197171e+00 4.064778e+04 3.399151e+00
1.205751e+00 4.067972e+04 3.398555e+00
1.214330e+00 4.075504e+04 3.382071e+00
1.222909e+00 4.079518e+04 3.378053e+00
1.231488e+00 4.085725e+04 3.364659e+00
1.240067e+00 4.090943e+04 3.359369e+00
1.248646e+00 4.089898e+04 3.338738e+00
1.257225e+00 4.078230e+04 3.332157e+00
1.265804e+00 4.090001e+04 3.318492e+00
1.274383e+00 4.089126e+04 3.313234e+00
1.282962e+00 4.095530e+04 3.299043e+00
1.291541e+00 4.096643e+04 3.291193e+00
1.300120e+00 4.103544e+04 3.279256e+00
1.308698e+00 4.102788e+04 3.273383e+00
1.317277e+00 4.107765e+04 3.265575e+00
1.325856e+00 4.113753e+04 3.256141e+00
1.334434e+00 4.116897e+04 3.241551e+00
1.343012e+00 4.114980e+04 3.239969e+00
1.351591e+00 4.107493e+04 3.218193e+00
1.360169e+00 4.122700e+04 3.214031e+00
1.368747e+00 4.118129e+04 3.208632e+00
1.377326e+00 4.125076e+04 3.197380e+00
1.385904e+00 4.128012e+04 3.189047e+00
1.394482e+00 4.137342e+04 3.183642e+00
1.403060e+00 4.131981e+04 3.168796e+00
1.411638e+00 4.135403e+04 3.163197e+00
1.420216e+00 4.142061e+04 3.160394e+00
1.428793e+00 4.142969e+04 3.138120e+00
1.437371e+00 4.144937e+04 3.140359e+00
1.445949e+00 4.155289e+04 3.132376e+00
1.454526e+00 4.160071e+04 3.127171e+00
1.463104e+00 4.161901e+04 3.112894e+00
1.471682e+00 4.162068e+04 3.111146e+00
1.480259e+00 4.156160e+04 3.096004e+00
1.488836e+00 4.156357e+04 3.086129e+00
1.497414e+00 4.157902e+04 3.077899e+00
1.505991e+00 4.166095e+04 3.071844e+00
1.514568e+00 4.165651e+04 3.064056e+00
1.523145e+00 4.171821e+04 3.064943e+00
1.531722e+00 4.171585e+04 3.046730e+00
1.540299e+00 4.173233e+04 3.040237e+00
1.548876e+00 4.175700e+04 3.036096e+00
1.557453e+00 4.180532e+04 3.025522e+00
1.566030e+00 4.178287e+04 3.016136e+00
1.574606e+00 4.183736e+04 3.016461e+00
1.583183e+00 4.187044e+04 3.001055e+00
1.591759e+00 4.186877e+04 2.994882e+00
1.600336e+00 4.185739e+04 2.991272e+00
1.608912e+00 4.192416e+04 2.981572e+00
1.617489e+00 4.186623e+04 2.974784e+00
1.626065e+00 4.185474e+04 2.963434e+00
1.634641e+00 4.188587e+04 2.957718e+00
1.643217e+00 4.191904e+04 2.948744e+00
1.651793e+00 4.196013e+04 2.946829e+00
1.660369e+00 4.200950e+04 2.937639e+00
1.668945e+00 4.207921e+04 2.932255e+00
1.677521e+00 4.204948e+04 2.929125e+00
1.686096e+00 4.209276e+04 2.919041e+00
1.694672e+00 4.210357e+04 2.912937e+00
1.703248e+00 4.207911e+04 2.902455e+00
1.711823e+00 4.204154e+04 2.894503e+00
1.720399e+00 4.208644e+04 2.890868e+00
1.728974e+00 4.206600e+04 2.886728e+00
1.737549e+00 4.204882e+04 2.869981e+00
1.746124e+00 4.206564e+04 2.870555e+00
1.754699e+00 4.212444e+04 2.856657e+00
1.763275e+00 4.218544e+04 2.863165e+00
1.771849e+00 4.210738e+04 2.847815e+00
1.780424e+00 4.212649e+04 2.843809e+00
1.788999e+00 4.218041e+04 2.835035e+00
1.797574e+00 4.212285e+04 2.826912e+00
1.806149e+00 4.212388e+04 2.824002e+00
1.814723e+00 4.210560e+04 2.813023e+00
1.823298e+00 4.212954e+04 2.811182e+00
1.831872e+00 4.217049e+04 2.798411e+00
1.840446e+00 4.214709e+04 2.798934e+00
1.849020e+00 4.211408e+04 2.788781e+00
1.857595e+00 4.213389e+04 2.782253e+00
1.866169e+00 4.215273e+04 2.779558e+00
1.874743e+00 4.212308e+04 2.768198e+00
1.883317e+00 4.207319e+04 2.757045e+00
1.891890e+00 4.209440e+04 2.758737e+00
1.900464e+00 4.217427e+04 2.753647e+00
1.909038e+00 4.214227e+04 2.743982e+00
1.917611e+00 4.213175e+04 2.735830e+00
1.926185e+00 4.210135e+04 2.735086e+00
1.934758e+00 4.212730e+04 2.723376e+00
1.943331e+00 4.208956e+04 2.724556e+00
1.951905e+00 4.214676e+04 2.711858e+00
1.960478e+00 4.215607e+04 2.704851e+00
1.969051e+00 4.209303e+04 2.706589e+00
1.977624e+00 4.204704e+04 2.695277e+00
1.986197e+00 4.214657e+04 2.690574e+00
1.994769e+00 4.217359e+04 2.682467e+00
2.003342e+00 4.216601e+04 2.683600e+00
2.011915e+00 4.216731e+04 2.674068e+00
2.020487e+00 4.211805e+04 2.669564e+00
2.029059e+00 4.219988e+04 2.662936e+00
2.037632e+00 4.211138e+04 2.657687e+00
2.046204e+00 4.213620e+04 2.646731e+00
2.054776e+00 4.213179e+04 2.650120e+00
2.063348e+00 4.216183e+04 2.636600e+00
2.071920e+00 4.217059e+04 2.639269e+00
2.080492e+00 4.215806e+04 2.628262e+00
2.089064e+00 4.218598e+04 2.626981e+00
2.097635e+00 4.211416e+04 2.614711e+00
2.106207e+00 4.209770e+04 2.614624e+00
2.114779e+00 4.212032e+04 2.606033e+00
2.123350e+00 4.211012e+04 2.601108e+00
2.131921e+00 4.213141e+04 2.599261e+00
2.140492e+00 4.210857e+04 2.591088e+00
2.149063e+00 4.211891e+04 2.585846e+00
2.157634e+00 4.209733e+04 2.580681e+00
2.166205e+00 4.212455e+04 2.577035e+00
2.174776e+00 4.215285e+04 2.571422e+00
2.183347e+00 4.207352e+04 2.566185e+00
2.191918e+00 4.206745e+04 2.557408e+00
2.200488e+00 4.210705e+04 2.554049e+00
2.209058e+00 4.208273e+04 2.550153e+00
2.217629e+00 4.200382e+04 2.546187e+00
2.226199e+00 4.199217e+04 2.536068e+00
2.234769e+00 4.206862e+04 2.535077e+00
2.243339e+00 4.206454e+04 2.528396e+00
2.251909e+00 4.205085e+04 2.524151e+00
2.260479e+00 4.210623e+04 2.522185e+00
2.269049e+00 4.212656e+04 2.518612e+00
2.277618e+00 4.211503e+04 2.509028e+00
2.286188e+00 4.211332e+04 2.508977e+00
2.294757e+00 4.207971e+04 2.502185e+00
2.303326e+00 4.207031e+04 2.497450e+00
2.311896e+00 4.201399e+04 2.491534e+00
2.320465e+00 4.205517e+04 2.485056e+00
2.329034e+00 4.205217e+04 2.485332e+00
2.337603e+00 4.207296e+04 2.475244e+00
2.346171e+00 4.207883e+04 2.478125e+00
2.354740e+00 4.211622e+04 2.468085e+00
2.363309e+00 4.206987e+04 2.464054e+00
2.371877e+00 4.208167e+04 2.458199e+00
2.380446e+00 4.205775e+04 2.459090e+00
2.389014e+00 4.207158e+04 2.452628e+00
2.397582e+00 4.205435e+04 2.446013e+00
2.406150e+00 4.205901e+04 2.439735e+00
2.414718e+00 4.200411e+04 2.436591e+00
2.423286e+00 4.206848e+04 2.437252e+00
2.431853e+00 4.201731e+04 2.426876e+00
2.440421e+00 4.202252e+04 2.424140e+00
2.448989e+00 4.196833e+04 2.417342e+00
2.457556e+00 4.201757e+04 2.416574e+00
2.466123e+00 4.203562e+04 2.413740e+00
2.474690e+00 4.201476e+04 2.406480e+00
2.483258e+00 4.207744e+04 2.401334e+00
2.491824e+00 4.203441e+04 2.402246e+00
2.500391e+00 4.209594e+04 2.395305e+00
2.508958e+00 4.206368e+04 2.394387e+00
2.517525e+00 4.206330e+04 2.384646e+00
2.526091e+00 4.205623e+04 2.386059e+00
2.534658e+00 4.207660e+04 2.377801e+00
2.543224e+00 4.205744e+04 2.378538e+00
2.551790e+00 4.208029e+04 2.369009e+00
2.560356e+00 4.215948e+04 2.373454e+00
2.568922e+00 4.206900e+04 2.359738e+00
2.577488e+00 4.208304e+04 2.363890e+00
2.586054e+00 4.207289e+04 2.355953e+00
2.594619e+00 4.208683e+04 2.352931e+00
2.603185e+00 4.208567e+04 2.349039e+00
2.611750e+00 4.205372e+04 2.343084e+00
2.620315e+00 4.202722e+04 2.340055e+00
2.628880e+00 4.205089e+04 2.336153e+00
2.637445e+00 4.194490e+04 2.331997e+00
2.646010e+00 4.205223e+04 2.326697e+00
2.654575e+00 4.204007e+04 2.327260e+00
2.663140e+00 4.205960e+04 2.318855e+00
2.671704e+00 4.209659e+04 2.320913e+00
2.680269e+00 4.201025e+04 2.309097e+00
2.688833e+00 4.208774e+04 2.314017e+00
2.697397e+00 4.206156e+04 2.303646e+00
2.705961e+00 4.205200e+04 2.305421e+00
2.714525e+00 4.209243e+04 2.298409e+00
2.723089e+00 4.203850e+04 2.293628e+00
2.731653e+00 4.203447e+04 2.294236e+00
2.740216e+00 4.203895e+04 2.287637e+00
2.748780e+00 4.196244e+04 2.282147e+00
2.757343e+00 4.200873e+04 2.280436e+00
2.765906e+00 4.197396e+04 2.276956e+00
2.774469e+00 4.194641e+04 2.268795e+00
2.783032e+00 4.190118e+04 2.268267e+00
2.791595e+00 4.191727e+04 2.261632e+00
2.800158e+00 4.193874e+04 2.263040e+00
2.808720e+00 4.197157e+04 2.256224e+00
2.817283e+00 4.196427e+04 2.256439e+00
2.825845e+00 4.201740e+04 2.248204e+00
2.834407e+00 4.196729e+04 2.251744e+00
2.842969e+00 4.202000e+04 2.243959e+00
2.851531e+00 4.200837e+04 2.242439e+00
2.860093e+00 4.203238e+04 2.237862e+00
2.868655e+00 4.203374e+04 2.238032e+00
2.877216e+00 4.203702e+04 2.230557e+00
2.885778e+00 4.205188e+04 2.229237e+00
2.894339e+00 4.203986e+04 2.225895e+00
2.902900e+00 4.204761e+04 2.224397e+00
2.911461e+00 4.201606e+04 2.221341e+00
2.920022e+00 4.199844e+04 2.212834e+00
2.928583e+00 4.200424e+04 2.211956e+00
2.937143e+00 4.201217e+04 2.208822e+00
2.945704e+00 4.199480e+04 2.207340e+00
2.954264e+00 4.196042e+04 2.201080e+00
2.962825e+00 4.199510e+04 2.200846e+00
2.971385e+00 4.198446e+04 2.190360e+00
2.979945e+00 4.198325e+04 2.195603e+00
2.988505e+00 4.200369e+04 2.189361e+00
2.997064e+00 4.198055e+04 2.184400e+00
3.005624e+00 4.198080e+04 2.184282e+00
3.014183e+00 4.198672e+04 2.180104e+00
3.022743e+00 4.196711e+04 2.174065e+00
3.031302e+00 4.197410e+04 2.174981e+00
3.039861e+00 4.199471e+04 2.170871e+00
3.048420e+00 4.202212e+04 2.167328e+00
3.056979e+00 4.196691e+04 2.166751e+00
3.065537e+00 4.195055e+04 2.158735e+00
3.074096e+00 4.198914e+04 2.159848e+00
3.082654e+00 4.194549e+04 2.152754e+00
3.091212e+00 4.195970e+04 2.155501e+00
3.099770e+00 4.197649e+04 2.146564e+00
3.108328e+00 4.189387e+04 2.145629e+00
3.116886e+00 4.177126e+04 2.136742e+00
3.125444e+00 4.160010e+04 2.132592e+00
3.134001e+00 4.129096e+04 2.117030e+00
3.142559e+00 4.117162e+04 2.116842e+00
3.151116e+00 4.150545e+04 2.117700e+00
3.159673e+00 4.177783e+04 2.124178e+00
3.168230e+00 4.183149e+04 2.122107e+00
3.176787e+00 4.185968e+04 2.121566e+00
3.185344e+00 4.186742e+04 2.115742e+00
3.193900e+00 4.191389e+04 2.116463e+00
3.202457e+00 4.192024e+04 2.112676e+00
3.211013e+00 4.190866e+04 2.111597e+00
3.219569e+00 4.195725e+04 2.108339e+00
3.228125e+00 4.189346e+04 2.103396e+00
3.236681e+00 4.192252e+04 2.099695e+00
3.245237e+00 4.188783e+04 2.098054e+00
3.253792e+00 4.193671e+04 2.100382e+00
3.262348e+00 4.191635e+04 2.091855e+00
3.270903e+00 4.186102e+04 2.089493e+00
3.279458e+00 4.196949e+04 2.087197e+00
3.288013e+00 4.193601e+04 2.089294e+00
3.296568e+00 4.194154e+04 2.081216e+00
3.305122e+00 4.203318e+04 2.084997e+00
3.313677e+00 4.198103e+04 2.076841e+00
3.322231e+00 4.200338e+04 2.076114e+00
3.330785e+00 4.199150e+04 2.073163e+00
3.339339e+00 4.203819e+04 2.071984e+00
3.347893e+00 4.213287e+04 2.071040e+00
3.356447e+00 4.220082e+04 2.072815e+00
3.365001e+00 4.220808e+04 2.069624e+00
3.373554e+00 4.226774e+04 2.064914e+00
3.382108e+00 4.237602e+04 2.069019e+00
3.390661e+00 4.245941e+04 2.066258e+00
3.399214e+00 4.260197e+04 2.067335e+00
3.407767e+00 4.287863e+04 2.071959e+00
3.416319e+00 4.324658e+04 2.076262e+00
3.424872e+00 4.390945e+04 2.090655e+00
3.433424e+00 4.531029e+04 2.123954e+00
3.441977e+00 4.835767e+04 2.187908e+00
3.450529e+00 5.658712e+04 2.365945e+00
3.459081e+00 8.250824e+04 2.850559e+00
3.467632e+00 1.727939e+05 4.123582e+00
3.476184e+00 4.352632e+05 6.523818e+00
3.484736e+00 7.716303e+05 8.701969e+00
3.493287e+00 7.196342e+05 8.383943e+00
3.501838e+00 3.673272e+05 5.982592e+00
3.510389e+00 1.441162e+05 3.740751e+00
3.518940e+00 7.389891e+04 2.674144e+00
3.527491e+00 5.380302e+04 2.279991e+00
3.536041e+00 4.716967e+04 2.135542e+00
3.544592e+00 4.460943e+04 2.070780e+00
3.553142e+00 4.336844e+04 2.039912e+00
3.561692e+00 4.282061e+04 2.026112e+00
3.570242e+00 4.250158e+04 2.013249e+00
3.578792e+00 4.222070e+04 2.005917e+00
3.587341e+00 4.206161e+04 1.998898e+00
3.595891e+00 4.197056e+04 1.995975e+00
3.604440e+00 4.185742e+04 1.989227e+00
3.612989e+00 4.169610e+04 1.985766e+00
3.621538e+00 4.170763e+04 1.981082e+00
3.630087e+00 4.167826e+04 1.978152e+00
3.638635e+00 4.159503e+04 1.974508e+00
3.647184e+00 4.154617e+04 1.972147e+00
3.655732e+00 4.145309e+04 1.965525e+00
3.664280e+00 4.140177e+04 1.962936e+00
3.672828e+00 4.139753e+04 1.957922e+00
3.681376e+00 4.137462e+04 1.958197e+00
3.689924e+00 4.129557e+04 1.954695e+00
3.698471e+00 4.125392e+04 1.950913e+00
3.707019e+00 4.125146e+04 1.949507e+00
3.715566e+00 4.123703e+04 1.942022e+00
3.724113e+00 4.118859e+04 1.941592e+00
3.732660e+00 4.117676e+04 1.940070e+00
3.741206e+00 4.119233e+04 1.939197e+00
3.749753e+00 4.112091e+04 1.932493e+00
3.758299e+00 4.111968e+04 1.931675e+00
3.766845e+00 4.108662e+04 1.927229e+00
3.775391e+00 4.108103e+04 1.928231e+00
3.783937e+00 4.101323e+04 1.921862e+00
3.792483e+00 4.101730e+04 1.919884e+00
3.801028e+00 4.101495e+04 1.917075e+00
3.809574e+00 4.098672e+04 1.917790e+00
3.818119e+00 4.095527e+04 1.910976e+00
3.826664e+00 4.098621e+04 1.909826e+00
3.835208e+00 4.094007e+04 1.908411e+00
3.843753e+00 4.095016e+04 1.905259e+00
3.852298e+00 4.089553e+04 1.904663e+00
3.860842e+00 4.091569e+04 1.900838e+00
3.869386e+00 4.087439e+04 1.894698e+00
3.877930e+00 4.090245e+04 1.895765e+00
3.886474e+00 4.082486e+04 1.893799e+00
3.895017e+00 4.081027e+04 1.890060e+00
3.903561e+00 4.079879e+04 1.889381e+00
3.912104e+00 4.079558e+04 1.885270e+00
3.920647e+00 4.079751e+04 1.880487e+00
3.929190e+00 4.076928e+04 1.880489e+00
3.937733e+00 4.071778e+04 1.881341e+00
3.946275e+00 4.056868e+04 1.871075e+00
3.954818e+00 4.058355e+04 1.870691e+00
3.963360e+00 4.062594e+04 1.869333e+00
3.971902e+00 4.069423e+04 1.865775e+00
3.980444e+00 4.070495e+04 1.868660e+00
3.988985e+00 4.067876e+04 1.865420e+00
3.997527e+00 4.067769e+04 1.861657e+00
4.006068e+00 4.065114e+04 1.861128e+00
4.014609e+00 4.066456e+04 1.858035e+00
4.023150e+00 4.064958e+04 1.854311e+00
4.031691e+00 4.067853e+04 1.853169e+00
4.040232e+00 4.063953e+04 1.852828e+00
4.048772e+00 4.065235e+04 1.850076e+00
4.057312e+00 4.062977e+04 1.848783e+00
4.065852e+00 4.059890e+04 1.844747e+00
4.074392e+00 4.064772e+04 1.841693e+00
4.082932e+00 4.061667e+04 1.841604e+00
4.091472e+00 4.062481e+04 1.841251e+00
4.100011e+00 4.082503e+04 1.843476e+00
4.108550e+00 4.083719e+04 1.840765e+00
4.117089e+00 4.087976e+04 1.837916e+00
4.125628e+00 4.082974e+04 1.835805e+00
4.134166e+00 4.076752e+04 1.833498e+00
4.142705e+00 4.061197e+04 1.830827e+00
4.151243e+00 4.055675e+04 1.823946e+00
4.159781e+00 4.055545e+04 1.822124e+00
4.168319e+00 4.051311e+04 1.820130e+00
4.176857e+00 4.046600e+04 1.817289e+00
4.185394e+00 4.044132e+04 1.813998e+00
4.193931e+00 4.047246e+04 1.813884e+00
4.202469e+00 4.046348e+04 1.812210e+00
4.211006e+00 4.048195e+04 1.809542e+00
4.219542e+00 4.047949e+04 1.807077e+00
4.228079e+00 4.043963e+04 1.805386e+00
4.236615e+00 4.039847e+04 1.804467e+00
4.245151e+00 4.038786e+04 1.799956e+00
4.253687e+00 4.040148e+04 1.802212e+00
4.262223e+00 4.042811e+04 1.795102e+00
4.270759e+00 4.037973e+04 1.794958e+00
4.279294e+00 4.033770e+04 1.791523e+00
4.287829e+00 4.036197e+04 1.792133e+00
4.296365e+00 4.031497e+04 1.788743e+00
4.304899e+00 4.037290e+04 1.789105e+00
4.313434e+00 4.037196e+04 1.784844e+00
4.321969e+00 4.034674e+04 1.781057e+00
4.330503e+00 4.038509e+04 1.783727e+00
4.339037e+00 4.038286e+04 1.781994e+00
4.347571e+00 4.038505e+04 1.779595e+00
4.356104e+00 4.038514e+04 1.777229e+00
4.364638e+00 4.037470e+04 1.774296e+00
4.373171e+00 4.036692e+04 1.771984e+00
4.381704e+00 4.037910e+04 1.773770e+00
4.390237e+00 4.028400e+04 1.767347e+00
4.398770e+00 4.031137e+04 1.768839e+00
4.407303e+00 4.030104e+04 1.765942e+00
4.415835e+00 4.024891e+04 1.761327e+00
4.424367e+00 3.993122e+04 1.753417e+00
4.432899e+00 3.933508e+04 1.739141e+00
4.441431e+00 3.887152e+04 1.725681e+00
4.449962e+00 3.921534e+04 1.734360e+00
4.458494e+00 3.980804e+04 1.744342e+00
4.467025e+00 4.014365e+04 1.748675e+00
4.475556e+00 4.022937e+04 1.749808e+00
4.484087e+00 4.025000e+04 1.748993e+00
4.492617e+00 4.024992e+04 1.748327e+00
4.501147e+00 4.024768e+04 1.746555e+00
4.509678e+00 4.023458e+04 1.743037e+00
4.518208e+00 4.023873e+04 1.738865e+00
4.526737e+00 4.026613e+04 1.740765e+00
4.535267e+00 4.022886e+04 1.739370e+00
4.543796e+00 4.026175e+04 1.739100e+00
4.552325e+00 4.027839e+04 1.736267e+00
4.560854e+00 4.026489e+04 1.734808e+00
4.569383e+00 4.030159e+04 1.729919e+00
4.577912e+00 4.024703e+04 1.732805e+00
4.586440e+00 4.022945e+04 1.730040e+00
4.594968e+00 4.030862e+04 1.729107e+00
4.603496e+00 4.027132e+04 1.726706e+00
4.612024e+00 4.028550e+04 1.723886e+00
4.620551e+00 4.028739e+04 1.721832e+00
4.629079e+00 4.027155e+04 1.721430e+00
4.637606e+00 4.023439e+04 1.719877e+00
4.646133e+00 4.029873e+04 1.719104e+00
4.654659e+00 4.025717e+04 1.718848e+00
4.663186e+00 4.027688e+04 1.713119e+00
4.671712e+00 4.028004e+04 1.713124e+00
4.680238e+00 4.034739e+04 1.712000e+00
4.688764e+00 4.034500e+04 1.715442e+00
4.697290e+00 4.037076e+04 1.711129e+00
4.705815e+00 4.041128e+04 1.710376e+00
4.714340e+00 4.043410e+04 1.706848e+00
4.722865e+00 4.042762e+04 1.707757e+00
4.731390e+00 4.049371e+04 1.708106e+00
4.739915e+00 4.053084e+04 1.708642e+00
4.748439e+00 4.057274e+04 1.705415e+00
4.756964e+00 4.058568e+04 1.705503e+00
4.765488e+00 4.060896e+04 1.701851e+00
4.774011e+00 4.067560e+04 1.702761e+00
4.782535e+00 4.076498e+04 1.704752e+00
4.791058e+00 4.083516e+04 1.705064e+00
4.799581e+00 4.091876e+04 1.704747e+00
4.808104e+00 4.098192e+04 1.702800e+00
4.816627e+00 4.110844e+04 1.704161e+00
4.825149e+00 4.124827e+04 1.704230e+00
4.833672e+00 4.143558e+04 1.711109e+00
4.842194e+00 4.169593e+04 1.712368e+00
4.850716e+00 4.206892e+04 1.721160e+00
4.859237e+00 4.269390e+04 1.727583e+00
4.867759e+00 4.374153e+04 1.750303e+00
4.876280e+00 4.559054e+04 1.780999e+00
4.884801e+00 4.981371e+04 1.867060e+00
4.893322e+00 6.047399e+04 2.051212e+00
4.901842e+00 9.233738e+04 2.535427e+00
4.910363e+00 2.009746e+05 3.728993e+00
4.918883e+00 5.488446e+05 6.163620e+00
4.927403e+00 1.162628e+06 8.962129e+00
4.935922e+00 1.349072e+06 9.648023e+00
4.944442e+00 8.358698e+05 7.594080e+00
4.952961e+00 3.245081e+05 4.722764e+00
4.961480e+00 1.267967e+05 2.949306e+00
4.969999e+00 7.059937e+04 2.197639e+00
4.978518e+00 5.309744e+04 1.905607e+00
4.987036e+00 4.679193e+04 1.788333e+00
4.995554e+00 4.408469e+04 1.736126e+00
5.004072e+00 4.279947e+04 1.705103e+00
5.012590e+00 4.205241e+04 1.689582e+00
5.021107e+00 4.153054e+04 1.675826e+00
5.029624e+00 4.122110e+04 1.672345e+00
5.038141e+00 4.097893e+04 1.663592e+00
5.046658e+00 4.075737e+04 1.662629e+00
5.055175e+00 4.059956e+04 1.650421e+00
5.063691e+00 4.051207e+04 1.651191e+00
5.072207e+00 4.043918e+04 1.645888e+00
5.080723e+00 4.033994e+04 1.645025e+00
5.089239e+00 4.024878e+04 1.641899e+00
5.097754e+00 4.017084e+04 1.639211e+00
5.106270e+00 4.011082e+04 1.634382e+00
5.114785e+00 4.007183e+04 1.630821e+00
5.123300e+00 4.002147e+04 1.632506e+00
5.131814e+00 3.997687e+04 1.627483e+00
5.140328e+00 3.993613e+04 1.628652e+00
5.148843e+00 3.990795e+04 1.624842e+00
5.157356e+00 3.986222e+04 1.621179e+00
5.165870e+00 3.988683e+04 1.618800e+00
5.174383e+00 3.985553e+04 1.621577e+00
5.182897e+00 3.977954e+04 1.615560e+00
5.191410e+00 3.969035e+04 1.614914e+00
5.199922e+00 3.966723e+04 1.611693e+00
5.208435e+00 3.962214e+04 1.610460e+00
5.216947e+00 3.961666e+04 1.604947e+00
5.225459e+00 3.959084e+04 1.606096e+00
5.233971e+00 3.956032e+04 1.603545e+00
5.242483e+00 3.956207e+04 1.605251e+00
5.250994e+00 3.951982e+04 1.601008e+00
5.259505e+00 3.952646e+04 1.598552e+00
5.268016e+00 3.961965e+04 1.599196e+00
5.276527e+00 3.987244e+04 1.603410e+00
5.285037e+00 4.002626e+04 1.606241e+00
5.293547e+00 3.995730e+04 1.604184e+00
5.302057e+00 3.979196e+04 1.599472e+00
5.310567e+00 3.957344e+04 1.589971e+00
5.319076e+00 3.943361e+04 1.589701e+00
5.327586e+00 3.937680e+04 1.584246e+00
5.336095e+00 3.931858e+04 1.586415e+00
5.344603e+00 3.929125e+04 1.581919e+00
5.353112e+00 3.929525e+04 1.580792e+00
5.361620e+00 3.924606e+04 1.576198e+00
5.370128e+00 3.920802e+04 1.577682e+00
5.378636e+00 3.922439e+04 1.574169e+00
5.387144e+00 3.922122e+04 1.576098e+00
5.395651e+00 3.919698e+04 1.572923e+00
5.404158e+00 3.913037e+04 1.569507e+00
5.412665e+00 3.912912e+04 1.567953e+00
5.421172e+00 3.898955e+04 1.564025e+00
5.429678e+00 3.877442e+04 1.558873e+00
5.438184e+00 3.847602e+04 1.553252e+00
5.446690e+00 3.847653e+04 1.552046e+00
5.455196e+00 3.873226e+04 1.552102e+00
5.463701e+00 3.893403e+04 1.557545e+00
5.472206e+00 3.899385e+04 1.556561e+00
5.480711e+00 3.905883e+04 1.558002e+00
5.489216e+00 3.910593e+04 1.556863e+00
5.497720e+00 3.910204e+04 1.558234e+00
5.506225e+00 3.907824e+04 1.551319e+00
5.514729e+00 3.910782e+04 1.554637e+00
5.523232e+00 3.912773e+04 1.551776e+00
5.531736e+00 3.917028e+04 1.553050e+00
5.540239e+00 3.914310e+04 1.551603e+00
5.548742e+00 3.911426e+04 1.549983e+00
5.557245e+00 3.906468e+04 1.544784e+00
5.565747e+00 3.907709e+04 1.544652e+00
5.574250e+00 3.902673e+04 1.543609e+00
5.582752e+00 3.904466e+04 1.544011e+00
5.591253e+00 3.902027e+04 1.541366e+00
5.599755e+00 3.901350e+04 1.540294e+00
5.608256e+00 3.901766e+04 1.537248e+00
5.616757e+00 3.899671e+04 1.535952e+00
5.625258e+00 3.901703e+04 1.536910e+00
5.633758e+00 3.901355e+04 1.535633e+00
5.642259e+00 3.905538e+04 1.534880e+00
5.650759e+00 3.905971e+04 1.533855e+00
5.659259e+00 3.903403e+04 1.532244e+00
5.667758e+00 3.903835e+04 1.529204e+00
5.676257e+00 3.905480e+04 1.531316e+00
5.684756e+00 3.905283e+04 1.528710e+00
5.693255e+00 3.901706e+04 1.527872e+00
5.701754e+00 3.899684e+04 1.525880e+00
5.710252e+00 3.897412e+04 1.523254e+00
5.718750e+00 3.898514e+04 1.522156e+00
5.727248e+00 3.897256e+04 1.520555e+00
5.735745e+00 3.894930e+04 1.522089e+00
5.744243e+00 3.904362e+04 1.520859e+00
5.752740e+00 3.899419e+04 1.519401e+00
5.761236e+00 3.901135e+04 1.515122e+00
5.769733e+00 3.896969e+04 1.515652e+00
5.778229e+00 3.897591e+04 1.515817e+00
5.786725e+00 3.902272e+04 1.515076e+00
5.795221e+00 3.904118e+04 1.514010e+00
5.803716e+00 3.905642e+04 1.512574e+00
5.812212e+00 3.907203e+04 1.511549e+00
5.820707e+00 3.906831e+04 1.512229e+00
5.829201e+00 3.906571e+04 1.509927e+00
5.837696e+00 3.907867e+04 1.509033e+00
5.846190e+00 3.905622e+04 1.508116e+00
5.854684e+00 3.908277e+04 1.507181e+00
5.863178e+00 3.912967e+04 1.505985e+00
5.871671e+00 3.910775e+04 1.505040e+00
5.880164e+00 3.916264e+04 1.505225e+00
5.888657e+00 3.921272e+04 1.505925e+00
5.897150e+00 3.923962e+04 1.505137e+00
5.905642e+00 3.923873e+04 1.501958e+00
5.914134e+00 3.930339e+04 1.502116e+00
5.922626e+00 3.934027e+04 1.503338e+00
5.931118e+00 3.941046e+04 1.505068e+00
5.939609e+00 3.948268e+04 1.503769e+00
5.948100e+00 3.958332e+04 1.505857e+00
5.956591e+00 3.971018e+04 1.503838e+00
5.965081e+00 3.999158e+04 1.508727e+00
5.973572e+00 4.029959e+04 1.515864e+00
5.982062e+00 4.094664e+04 1.527071e+00
5.990552e+00 4.217306e+04 1.547438e+00
5.999041e+00 4.522846e+04 1.601468e+00
6.007530e+00 5.375343e+04 1.743266e+00
6.016019e+00 8.129153e+04 2.143674e+00
6.024508e+00 1.749467e+05 3.144060e+00
6.032996e+00 4.060006e+05 4.783275e+00
6.041485e+00 6.225454e+05 5.917080e+00
6.049972e+00 5.281486e+05 5.454647e+00
6.058460e+00 2.644003e+05 3.849759e+00
6.066947e+00 1.099947e+05 2.481746e+00
6.075435e+00 6.177478e+04 1.859430e+00
6.083921e+00 4.776434e+04 1.635810e+00
6.092408e+00 4.309244e+04 1.550800e+00
6.100894e+00 4.122550e+04 1.516284e+00
6.109380e+00 4.038786e+04 1.498005e+00
6.117866e+00 3.991308e+04 1.488967e+00
6.126352e+00 3.962906e+04 1.483660e+00
6.134837e+00 3.949794e+04 1.481080e+00
6.143322e+00 3.930080e+04 1.474557e+00
6.151807e+00 3.922908e+04 1.472396e+00
6.160291e+00 3.915450e+04 1.469171e+00
6.168775e+00 3.913937e+04 1.468968e+00
6.177259e+00 3.905219e+04 1.467816e+00
6.185743e+00 3.900352e+04 1.463755e+00
6.194226e+00 3.894182e+04 1.461233e+00
6.202709e+00 3.894568e+04 1.460985e+00
6.211192e+00 3.890380e+04 1.459640e+00
6.219674e+00 3.885895e+04 1.457243e+00
6.228156e+00 3.885313e+04 1.457173e+00
6.236638e+00 3.883547e+04 1.454499e+00
6.245120e+00 3.873419e+04 1.452562e+00
6.253602e+00 3.862159e+04 1.449541e+00
6.262083e+00 3.859687e+04 1.447110e+00
6.270564e+00 3.858266e+04 1.444573e+00
6.279044e+00 3.843434e+04 1.444687e+00
6.287524e+00 3.833348e+04 1.439472e+00
6.296004e+00 3.846735e+04 1.442217e+00
6.304484e+00 3.859271e+04 1.441645e+00
6.312964e+00 3.864971e+04 1.442321e+00
6.321443e+00 3.866838e+04 1.441312e+00
6.329922e+00 3.864476e+04 1.442035e+00
6.338400e+00 3.865593e+04 1.439496e+00
6.346879e+00 3.860397e+04 1.437950e+00
6.355357e+00 3.860950e+04 1.436669e+00
6.363835e+00 3.854473e+04 1.435386e+00
6.372312e+00 3.855599e+04 1.434408e+00
6.380790e+00 3.855501e+04 1.433587e+00
6.389267e+00 3.858302e+04 1.432314e+00
6.397743e+00 3.859272e+04 1.431239e+00
6.406220e+00 3.856571e+04 1.430662e+00
6.414696e+00 3.855318e+04 1.429141e+00
6.423172e+00 3.851744e+04 1.429084e+00
6.431647e+00 3.851577e+04 1.425656e+00
6.440122e+00 3.854126e+04 1.427069e+00
6.448597e+00 3.850104e+04 1.423844e+00
6.457072e+00 3.848600e+04 1.424278e+00
6.465547e+00 3.854949e+04 1.421934e+00
6.474021e+00 3.854965e+04 1.424142e+00
6.482495e+00 3.852055e+04 1.420098e+00
6.490968e+00 3.850203e+04 1.421170e+00
6.499441e+00 3.849172e+04 1.417638e+00
6.507914e+00 3.847821e+04 1.417352e+00
6.516387e+00 3.850852e+04 1.417096e+00
6.524860e+00 3.849746e+04 1.416634e+00
6.533332e+00 3.844627e+04 1.413851e+00
6.541804e+00 3.845108e+04 1.413278e+00
6.550275e+00 3.848306e+04 1.414049e+00
6.558746e+00 3.849665e+04 1.412209e+00
6.567217e+00 3.845594e+04 1.410367e+00
6.575688e+00 3.845692e+04 1.409692e+00
6.584159e+00 3.847082e+04 1.409110e+00
6.592629e+00 3.847748e+04 1.408796e+00
6.601099e+00 3.847276e+04 1.407911e+00
6.609568e+00 3.845308e+04 1.404983e+00
6.618037e+00 3.846519e+04 1.406179e+00
6.626506e+00 3.847559e+04 1.404026e+00
6.634975e+00 3.846050e+04 1.403247e+00
6.643443e+00 3.848221e+04 1.402530e+00
6.651911e+00 3.846475e+04 1.403037e+00
6.660379e+00 3.844767e+04 1.399970e+00
6.668847e+00 3.851070e+04 1.401081e+00
6.677314e+00 3.867708e+04 1.402176e+00
6.685781e+00 3.896899e+04 1.407565e+00
6.694248e+00 3.936744e+04 1.413629e+00
6.702714e+00 3.939002e+04 1.413568e+00
6.711180e+00 3.905291e+04 1.405760e+00
6.719646e+00 3.882794e+04 1.401315e+00
6.728111e+00 3.870566e+04 1.398117e+00
6.736576e+00 3.862147e+04 1.395504e+00
6.745041e+00 3.854504e+04 1.393526e+00
6.753506e+00 3.850679e+04 1.392448e+00
6.761970e+00 3.849771e+04 1.390430e+00
6.770434e+00 3.851698e+04 1.390394e+00
6.778898e+00 3.849959e+04 1.389000e+00
6.787361e+00 3.855144e+04 1.388058e+00
6.795824e+00 3.856180e+04 1.389913e+00
6.804287e+00 3.853679e+04 1.385822e+00
6.812749e+00 3.853999e+04 1.387540e+00
6.821212e+00 3.854339e+04 1.384699e+00
6.829674e+00 3.854275e+04 1.384825e+00
6.838135e+00 3.852662e+04 1.383331e+00
6.846596e+00 3.854181e+04 1.382711e+00
6.855057e+00 3.856654e+04 1.382915e+00
6.863518e+00 3.857861e+04 1.382138e+00
6.871979e+00 3.863671e+04 1.382152e+00
6.880439e+00 3.870217e+04 1.380969e+00
6.888898e+00 3.877875e+04 1.383494e+00
6.897358e+00 3.885394e+04 1.383299e+00
6.905817e+00 3.901368e+04 1.385423e+00
6.914276e+00 3.925914e+04 1.388819e+00
6.922735e+00 3.973492e+04 1.396626e+00
6.931193e+00 4.078448e+04 1.413321e+00
6.939651e+00 4.355663e+04 1.460743e+00
6.948108e+00 5.197870e+04 1.592612e+00
6.956566e+00 8.054985e+04 1.985144e+00
6.965023e+00 1.657230e+05 2.840753e+00
6.973480e+00 3.007895e+05 3.829370e+00
6.981936e+00 3.349555e+05 4.033247e+00
6.990392e+00 2.213183e+05 3.281410e+00
6.998848e+00 1.057280e+05 2.263838e+00
7.007304e+00 5.908419e+04 1.692867e+00
7.015759e+00 4.538536e+04 1.481793e+00
7.024214e+00 4.085406e+04 1.406251e+00
7.032668e+00 3.919001e+04 1.375950e+00
7.041123e+00 3.877569e+04 1.366053e+00
7.049577e+00 3.877363e+04 1.367663e+00
7.058030e+00 3.877951e+04 1.365758e+00
7.066484e+00 3.870846e+04 1.364376e+00
7.074937e+00 3.865832e+04 1.362411e+00
7.083390e+00 3.859398e+04 1.359711e+00
7.091842e+00 3.853388e+04 1.357871e+00
7.100294e+00 3.854797e+04 1.358347e+00
7.108746e+00 3.853069e+04 1.357101e+00
7.117197e+00 3.852169e+04 1.355162e+00
7.125649e+00 3.851985e+04 1.354807e+00
7.134100e+00 3.851053e+04 1.353773e+00
7.142550e+00 3.844945e+04 1.351573e+00
7.151000e+00 3.837227e+04 1.350280e+00
7.159450e+00 3.836236e+04 1.349497e+00
7.167900e+00 3.836134e+04 1.347274e+00
7.176349e+00 3.833431e+04 1.346704e+00
7.184798e+00 3.827565e+04 1.345037e+00
7.193247e+00 3.828655e+04 1.343610e+00
7.201695e+00 3.828345e+04 1.344793e+00
7.210144e+00 3.826985e+04 1.342368e+00
7.218591e+00 3.825592e+04 1.340610e+00
7.227039e+00 3.824024e+04 1.340461e+00
7.235486e+00 3.824513e+04 1.339540e+00
7.243933e+00 3.824866e+04 1.338503e+00
7.252379e+00 3.825873e+04 1.338616e+00
7.260825e+00 3.825254e+04 1.338258e+00
7.269271e+00 3.819569e+04 1.334174e+00
7.277717e+00 3.820720e+04 1.335496e+00
7.286162e+00 3.818930e+04 1.334218e+00
7.294607e+00 3.821925e+04 1.332538e+00
7.303051e+00 3.816779e+04 1.332880e+00
7.311496e+00 3.816426e+04 1.330775e+00
7.319940e+00 3.814810e+04 1.330123e+00
7.328383e+00 3.816140e+04 1.329154e+00
7.336827e+00 3.819977e+04 1.330654e+00
7.345270e+00 3.818587e+04 1.327155e+00
7.353712e+00 3.817548e+04 1.328262e+00
7.362155e+00 3.818948e+04 1.327463e+00
7.370597e+00 3.816032e+04 1.324970e+00
7.379038e+00 3.814071e+04 1.324478e+00
7.387480e+00 3.812737e+04 1.323698e+00
7.395921e+00 3.814552e+04 1.322434e+00
7.404362e+00 3.814119e+04 1.322602e+00
7.412802e+00 3.816918e+04 1.323056e+00
7.421242e+00 3.816878e+04 1.320328e+00
7.429682e+00 3.820657e+04 1.321041e+00
7.438121e+00 3.819277e+04 1.320170e+00
7.446560e+00 3.817139e+04 1.318838e+00
7.454999e+00 3.816159e+04 1.318338e+00
7.463438e+00 3.818126e+04 1.317568e+00
7.471876e+00 3.819377e+04 1.316438e+00
7.480314e+00 3.815383e+04 1.315600e+00
7.488751e+00 3.817756e+04 1.316367e+00
7.497188e+00 3.822324e+04 1.314889e+00
7.505625e+00 3.821471e+04 1.314059e+00
7.514062e+00 3.821986e+04 1.314890e+00
7.522498e+00 3.820817e+04 1.312376e+00
7.530934e+00 3.825505e+04 1.312441e+00
7.539369e+00 3.825157e+04 1.312382e+00
7.547804e+00 3.823369e+04 1.311278e+00
7.556239e+00 3.825914e+04 1.311007e+00
7.564674e+00 3.827104e+04 1.310240e+00
7.573108e+00 3.829997e+04 1.310206e+00
7.581542e+00 3.830572e+04 1.308225e+00
7.589975e+00 3.832310e+04 1.309898e+00
7.598409e+00 3.834849e+04 1.307903e+00
7.606841e+00 3.838397e+04 1.309092e+00
7.615274e+00 3.838185e+04 1.307365e+00
7.623706e+00 3.835755e+04 1.306922e+00
7.632138e+00 3.839577e+04 1.306003e+00
7.640570e+00 3.841832e+04 1.306097e+00
7.649001e+00 3.848828e+04 1.306734e+00
7.657432e+00 3.852402e+04 1.306935e+00
7.665862e+00 3.853421e+04 1.305835e+00
7.674293e+00 3.858752e+04 1.305554e+00
7.682722e+00 3.860625e+04 1.306332e+00
7.691152e+00 3.853544e+04 1.303263e+00
7.699581e+00 3.845260e+04 1.302005e+00
7.708010e+00 3.856199e+04 1.302535e+00
7.716439e+00 3.884483e+04 1.307217e+00
7.724867e+00 3.926337e+04 1.312711e+00
7.733295e+00 3.971732e+04 1.320568e+00
7.741722e+00 4.043130e+04 1.329673e+00
7.750149e+00 4.180257e+04 1.354404e+00
7.758576e+00 4.493290e+04 1.400915e+00
7.767003e+00 5.348236e+04 1.528660e+00
7.775429e+00 8.070978e+04 1.875182e+00
7.783855e+00 1.718694e+05 2.737831e+00
7.792280e+00 4.088656e+05 4.216800e+00
7.800706e+00 6.845201e+05 5.458281e+00
7.809130e+00 6.616586e+05 5.358203e+00
7.817555e+00 3.771389e+05 4.047340e+00
7.825979e+00 1.551690e+05 2.591714e+00
7.834403e+00 7.486684e+04 1.800859e+00
7.842826e+00 5.156243e+04 1.493679e+00
7.851249e+00 4.411071e+04 1.379867e+00
7.859672e+00 4.133796e+04 1.336198e+00
7.868095e+00 4.011859e+04 1.314556e+00
7.876517e+00 3.952508e+04 1.304543e+00
7.884939e+00 3.910636e+04 1.296917e+00
7.893360e+00 3.890128e+04 1.293345e+00
7.901781e+00 3.875432e+04 1.288713e+00
7.910202e+00 3.860712e+04 1.287560e+00
7.918622e+00 3.852730e+04 1.283833e+00
7.927042e+00 3.842324e+04 1.283031e+00
7.935462e+00 3.835308e+04 1.279259e+00
7.943881e+00 3.830118e+04 1.278993e+00
7.952300e+00 3.825391e+04 1.276053e+00
7.960719e+00 3.821280e+04 1.277353e+00
7.969137e+00 3.816255e+04 1.273905e+00
7.977555e+00 3.810441e+04 1.272015e+00
7.985973e+00 3.813464e+04 1.273087e+00
7.994390e+00 3.807100e+04 1.270513e+00
8.002807e+00 3.804420e+04 1.269151e+00
8.011224e+00 3.801299e+04 1.269249e+00
8.019640e+00 3.796906e+04 1.267040e+00
8.028056e+00 3.798202e+04 1.266373e+00
8.036471e+00 3.796010e+04 1.265553e+00
8.044887e+00 3.792121e+04 1.263386e+00
8.053301e+00 3.793265e+04 1.264136e+00
8.061716e+00 3.786790e+04 1.262073e+00
8.070130e+00 3.784856e+04 1.261592e+00
8.078544e+00 3.783493e+04 1.259142e+00
8.086957e+00 3.782338e+04 1.260456e+00
8.095370e+00 3.781939e+04 1.257804e+00
8.103783e+00 3.779182e+04 1.256793e+00
8.112195e+00 3.778305e+04 1.256542e+00
8.120607e+00 3.777162e+04 1.256195e+00
8.129019e+00 3.778749e+04 1.255201e+00
8.137430e+00 3.778665e+04 1.255737e+00
8.145841e+00 3.777246e+04 1.252239e+00
8.154252e+00 3.777272e+04 1.253076e+00
8.162662e+00 3.777741e+04 1.253388e+00
8.171072e+00 3.771890e+04 1.251351e+00
8.179482e+00 3.774332e+04 1.251081e+00
8.187891e+00 3.770488e+04 1.248194e+00
8.196300e+00 3.771747e+04 1.248583e+00
8.204708e+00 3.773372e+04 1.247924e+00
8.213117e+00 3.778310e+04 1.249953e+00
8.221524e+00 3.784286e+04 1.249135e+00
8.229932e+00 3.781058e+04 1.247445e+00
8.238339e+00 3.777432e+04 1.246359e+00
8.246745e+00 3.771029e+04 1.245482e+00
8.255152e+00 3.770227e+04 1.243739e+00
8.263558e+00 3.768513e+04 1.243839e+00
8.271963e+00 3.768777e+04 1.242353e+00
8.280369e+00 3.767791e+04 1.242420e+00
8.288774e+00 3.770356e+04 1.241394e+00
8.297178e+00 3.770111e+04 1.240771e+00
8.305582e+00 3.770504e+04 1.240025e+00
8.313986e+00 3.768766e+04 1.239487e+00
8.322390e+00 3.766131e+04 1.238599e+00
8.330793e+00 3.768693e+04 1.238566e+00
8.339196e+00 3.770161e+04 1.237348e+00
8.347598e+00 3.769079e+04 1.236117e+00
8.356000e+00 3.768073e+04 1.236177e+00
8.364402e+00 3.766969e+04 1.235946e+00
8.372803e+00 3.769894e+04 1.235349e+00
8.381204e+00 3.768900e+04 1.234687e+00
8.389605e+00 3.766290e+04 1.232441e+00
8.398005e+00 3.767028e+04 1.232611e+00
8.406405e+00 3.767533e+04 1.232520e+00
8.414804e+00 3.765218e+04 1.232365e+00
8.423203e+00 3.768852e+04 1.231123e+00
8.431602e+00 3.772841e+04 1.231577e+00
8.440000e+00 3.777196e+04 1.230656e+00
8.448399e+00 3.784410e+04 1.231657e+00
8.456796e+00 3.792438e+04 1.233235e+00
8.465193e+00 3.802566e+04 1.233891e+00
8.473590e+00 3.816064e+04 1.235461e+00
8.481987e+00 3.840391e+04 1.238057e+00
8.490383e+00 3.879853e+04 1.244128e+00
8.498779e+00 3.969809e+04 1.256740e+00
8.507175e+00 4.187398e+04 1.292420e+00
8.515570e+00 4.811666e+04 1.383125e+00
8.523964e+00 6.850135e+04 1.651188e+00
8.532359e+00 1.337044e+05 2.302230e+00
8.540753e+00 2.741691e+05 3.297592e+00
8.549146e+00 3.877692e+05 3.916732e+00
8.557540e+00 3.314334e+05 3.626441e+00
8.565932e+00 1.804887e+05 2.671419e+00
8.574325e+00 8.475565e+04 1.830199e+00
8.582717e+00 5.260721e+04 1.439291e+00
8.591109e+00 4.319881e+04 1.305693e+00
8.599500e+00 4.009615e+04 1.255925e+00
8.607891e+00 3.887562e+04 1.238417e+00
8.616282e+00 3.836092e+04 1.227941e+00
8.624672e+00 3.805781e+04 1.222095e+00
8.633062e+00 3.787635e+04 1.218462e+00
8.641452e+00 3.777551e+04 1.216791e+00
8.649841e+00 3.771113e+04 1.215206e+00
8.658230e+00 3.765146e+04 1.213721e+00
8.666618e+00 3.757226e+04 1.212231e+00
8.675006e+00 3.754546e+04 1.210308e+00
8.683394e+00 3.751823e+04 1.209397e+00
8.691781e+00 3.749713e+04 1.208845e+00
8.700168e+00 3.747625e+04 1.207850e+00
8.708555e+00 3.745403e+04 1.206225e+00
8.716941e+00 3.736502e+04 1.206620e+00
8.725327e+00 3.737667e+04 1.203157e+00
8.733712e+00 3.736288e+04 1.203751e+00
8.742097e+00 3.738652e+04 1.202221e+00
8.750482e+00 3.733649e+04 1.202836e+00
8.758866e+00 3.732329e+04 1.201274e+00
8.767250e+00 3.731557e+04 1.201987e+00
8.775633e+00 3.731374e+04 1.198551e+00
8.784017e+00 3.727734e+04 1.198959e+00
8.792399e+00 3.725465e+04 1.196934e+00
8.800782e+00 3.722782e+04 1.196572e+00
8.809164e+00 3.723166e+04 1.197140e+00
8.817545e+00 3.725127e+04 1.196742e+00
8.825927e+00 3.724350e+04 1.194072e+00
8.834307e+00 3.719608e+04 1.193128e+00
8.842688e+00 3.719308e+04 1.193720e+00
8.851068e+00 3.717882e+04 1.192327e+00
8.859448e+00 3.714171e+04 1.192850e+00
8.867827e+00 3.711018e+04 1.189499e+00
8.876206e+00 3.711678e+04 1.189355e+00
8.884585e+00 3.709304e+04 1.188793e+00
8.892963e+00 3.702113e+04 1.187121e+00
8.901341e+00 3.695960e+04 1.185164e+00
8.909718e+00 3.697052e+04 1.186828e+00
8.918095e+00 3.702445e+04 1.184494e+00
8.926472e+00 3.709618e+04 1.186315e+00
8.934848e+00 3.709269e+04 1.184284e+00
8.943224e+00 3.711227e+04 1.185763e+00
8.951599e+00 3.710678e+04 1.185204e+00
8.959975e+00 3.706206e+04 1.183326e+00
8.968349e+00 3.708894e+04 1.182460e+00
8.976724e+00 3.704656e+04 1.181762e+00
8.985098e+00 3.703701e+04 1.181075e+00
8.993471e+00 3.704270e+04 1.180299e+00
9.001844e+00 3.705516e+04 1.180653e+00
9.010217e+00 3.701023e+04 1.179560e+00
9.018590e+00 3.702235e+04 1.179664e+00
9.026962e+00 3.701098e+04 1.176348e+00
9.035333e+00 3.701449e+04 1.177549e+00
9.043705e+00 3.701071e+04 1.175794e+00
9.052075e+00 3.698319e+04 1.177183e+00
9.060446e+00 3.700573e+04 1.175518e+00
9.068816e+00 3.699807e+04 1.175550e+00
9.077186e+00 3.697553e+04 1.172850e+00
9.085555e+00 3.697671e+04 1.174093e+00
9.093924e+00 3.696773e+04 1.172290e+00
9.102292e+00 3.698789e+04 1.174139e+00
9.110660e+00 3.695152e+04 1.171446e+00
9.119028e+00 3.692816e+04 1.170445e+00
9.127395e+00 3.695474e+04 1.169630e+00
9.135762e+00 3.697319e+04 1.169922e+00
9.144129e+00 3.698258e+04 1.169794e+00
9.152495e+00 3.710556e+04 1.171755e+00
9.160861e+00 3.719086e+04 1.172298e+00
9.169226e+00 3.722385e+04 1.172017e+00
9.177591e+00 3.709301e+04 1.168878e+00
9.185956e+00 3.700480e+04 1.167573e+00
9.194320e+00 3.695146e+04 1.165873e+00
9.202684e+00 3.695310e+04 1.165470e+00
9.211047e+00 3.692324e+04 1.164892e+00
9.219410e+00 3.689791e+04 1.164000e+00
9.227773e+00 3.691366e+04 1.163181e+00
9.236135e+00 3.690976e+04 1.161631e+00
9.244497e+00 3.691145e+04 1.162976e+00
9.252858e+00 3.689145e+04 1.161406e+00
9.261219e+00 3.687055e+04 1.161141e+00
9.269580e+00 3.686937e+04 1.159703e+00
9.277940e+00 3.686509e+04 1.158875e+00
9.286300e+00 3.686670e+04 1.158331e+00
9.294659e+00 3.687668e+04 1.158909e+00
9.303018e+00 3.685145e+04 1.157943e+00
9.311377e+00 3.685910e+04 1.157790e+00
9.319735e+00 3.685158e+04 1.155677e+00
9.328093e+00 3.682224e+04 1.154443e+00
9.336450e+00 3.686098e+04 1.155531e+00
9.344807e+00 3.684420e+04 1.155917e+00
9.353164e+00 3.681304e+04 1.153548e+00
9.361520e+00 3.687268e+04 1.154190e+00
9.369876e+00 3.685515e+04 1.152750e+00
9.378232e+00 3.687515e+04 1.152813e+00
9.386587e+00 3.687270e+04 1.152526e+00
9.394941e+00 3.687864e+04 1.152971e+00
9.403295e+00 3.684489e+04 1.151055e+00
9.411649e+00 3.683906e+04 1.151212e+00
9.420003e+00 3.683219e+04 1.149761e+00
9.428356e+00 3.673725e+04 1.146962e+00
9.436708e+00 3.654221e+04 1.143790e+00
9.445060e+00 3.632709e+04 1.141359e+00
9.453412e+00 3.631941e+04 1.139768e+00
9.461763e+00 3.654574e+04 1.143723e+00
9.470114e+00 3.672865e+04 1.144331e+00
9.478465e+00 3.677212e+04 1.145008e+00
9.486815e+00 3.682560e+04 1.145289e+00
9.495165e+00 3.683504e+04 1.146212e+00
9.503514e+00 3.685351e+04 1.144582e+00
9.511863e+00 3.681893e+04 1.144106e+00
9.520212e+00 3.680477e+04 1.142870e+00
9.528560e+00 3.682416e+04 1.143192e+00
9.536908e+00 3.681617e+04 1.143088e+00
9.545255e+00 3.680421e+04 1.141243e+00
9.553602e+00 3.683067e+04 1.141774e+00
9.561948e+00 3.684515e+04 1.141030e+00
9.570294e+00 3.685761e+04 1.141384e+00
9.578640e+00 3.683249e+04 1.139747e+00
9.586985e+00 3.683252e+04 1.139627e+00
9.595330e+00 3.682201e+04 1.138822e+00
9.603675e+00 3.681669e+04 1.139141e+00
9.612019e+00 3.682134e+04 1.137810e+00
9.620362e+00 3.681822e+04 1.136903e+00
9.628705e+00 3.679132e+04 1.136527e+00
9.637048e+00 3.679774e+04 1.135988e+00
9.645390e+00 3.678746e+04 1.135670e+00
9.653732e+00 3.675470e+04 1.134290e+00
9.662074e+00 3.678572e+04 1.134967e+00
9.670415e+00 3.679240e+04 1.133128e+00
9.678756e+00 3.682454e+04 1.134633e+00
9.687096e+00 3.682530e+04 1.133002e+00
9.695436e+00 3.683458e+04 1.133283e+00
9.703776e+00 3.681227e+04 1.132604e+00
9.712115e+00 3.680213e+04 1.132034e+00
9.720453e+00 3.680936e+04 1.130473e+00
9.728791e+00 3.680222e+04 1.131071e+00
9.737129e+00 3.682377e+04 1.130479e+00
9.745467e+00 3.687601e+04 1.130476e+00
9.753804e+00 3.684562e+04 1.129736e+00
9.762140e+00 3.694079e+04 1.131136e+00
9.770476e+00 3.705265e+04 1.131809e+00
9.778812e+00 3.713444e+04 1.132939e+00
9.787147e+00 3.715369e+04 1.132685e+00
9.795482e+00 3.715048e+04 1.131582e+00
9.803817e+00 3.714544e+04 1.131720e+00
9.812151e+00 3.723568e+04 1.132352e+00
9.820484e+00 3.752174e+04 1.136145e+00
9.828818e+00 3.803791e+04 1.143914e+00
9.837151e+00 3.947644e+04 1.164883e+00
9.845483e+00 4.399336e+04 1.227656e+00
9.853815e+00 5.885512e+04 1.421589e+00
9.862146e+00 9.863995e+04 1.837767e+00
9.870477e+00 1.559179e+05 2.311284e+00
9.878808e+00 1.728554e+05 2.429884e+00
9.887138e+00 1.287864e+05 2.097426e+00
9.895468e+00 7.494735e+04 1.599981e+00
9.903798e+00 4.903001e+04 1.293437e+00
9.912127e+00 4.090792e+04 1.180230e+00
9.920455e+00 3.843391e+04 1.144062e+00
9.928783e+00 3.758835e+04 1.130965e+00
9.937111e+00 3.723026e+04 1.125335e+00
9.945439e+00 3.697715e+04 1.120037e+00
9.953765e+00 3.674515e+04 1.117143e+00
9.962092e+00 3.655549e+04 1.113444e+00
9.970418e+00 3.658730e+04 1.113683e+00
9.978743e+00 3.667071e+04 1.113782e+00
9.987069e+00 3.677849e+04 1.114720e+00
9.995393e+00 3.681706e+04 1.115738e+00
1.000372e+01 3.679118e+04 1.114498e+00
1.001204e+01 3.677853e+04 1.114513e+00
1.002037e+01 3.682342e+04 1.113840e+00
1.002869e+01 3.689588e+04 1.114841e+00
1.003701e+01 3.695940e+04 1.114431e+00
1.004533e+01 3.695598e+04 1.115298e+00
1.005365e+01 3.690232e+04 1.113178e+00
1.006198e+01 3.682963e+04 1.111838e+00
1.007030e+01 3.677526e+04 1.110589e+00
1.007862e+01 3.675042e+04 1.109302e+00
1.008694e+01 3.677281e+04 1.109417e+00
1.009526e+01 3.675194e+04 1.109158e+00
1.010358e+01 3.675166e+04 1.107949e+00
1.011190e+01 3.671730e+04 1.107357e+00
1.012021e+01 3.672142e+04 1.107050e+00
1.012853e+01 3.671978e+04 1.106748e+00
1.013685e+01 3.670285e+04 1.105313e+00
1.014517e+01 3.671091e+04 1.105858e+00
1.015348e+01 3.670077e+04 1.104382e+00
1.016180e+01 3.671061e+04 1.104824e+00
1.017011e+01 3.674436e+04 1.104579e+00
1.017843e+01 3.675366e+04 1.103876e+00
1.018674e+01 3.670976e+04 1.102613e+00
1.019506e+01 3.673387e+04 1.103341e+00
1.020337e+01 3.673847e+04 1.102315e+00
1.021169e+01 3.674157e+04 1.102489e+00
1.022000e+01 3.679450e+04 1.102444e+00
1.022831e+01 3.677187e+04 1.101650e+00
1.023662e+01 3.676633e+04 1.100261e+00
1.024494e+01 3.679025e+04 1.101907e+00
1.025325e+01 3.677131e+04 1.100263e+00
1.026156e+01 3.680807e+04 1.100831e+00
1.026987e+01 3.684072e+04 1.100016e+00
1.027818e+01 3.683232e+04 1.099638e+00
1.028649e+01 3.683708e+04 1.099113e+00
1.029480e+01 3.687068e+04 1.099993e+00
1.030311e+01 3.685711e+04 1.098332e+00
1.031142e+01 3.687954e+04 1.099188e+00
1.031972e+01 3.692942e+04 1.099355e+00
1.032803e+01 3.695286e+04 1.098787e+00
1.033634e+01 3.697719e+04 1.098055e+00
1.034464e+01 3.699552e+04 1.099368e+00
1.035295e+01 3.702021e+04 1.098515e+00
1.036126e+01 3.707176e+04 1.098868e+00
1.036956e+01 3.714203e+04 1.099819e+00
1.037787e+01 3.722074e+04 1.099302e+00
1.038617e+01 3.729868e+04 1.100864e+00
1.039447e+01 3.744129e+04 1.102733e+00
1.040278e+01 3.761345e+04 1.105068e+00
1.041108e+01 3.791983e+04 1.108535e+00
1.041938e+01 3.851777e+04 1.116861e+00
1.042769e+01 3.980777e+04 1.134858e+00
1.043599e+01 4.312478e+04 1.181079e+00
1.044429e+01 5.301275e+04 1.308295e+00
1.045259e+01 8.538225e+04 1.660938e+00
1.046089e+01 1.780693e+05 2.396507e+00
1.046919e+01 3.369959e+05 3.294492e+00
1.047749e+01 4.277299e+05 3.713333e+00
1.048579e+01 3.435425e+05 3.323343e+00
1.049409e+01 1.836514e+05 2.429473e+00
1.050239e+01 8.630251e+04 1.665351e+00
1.051068e+01 5.298585e+04 1.305331e+00
1.051898e+01 4.297026e+04 1.173395e+00
1.052728e+01 3.963583e+04 1.126894e+00
1.053557e+01 3.832161e+04 1.107540e+00
1.054387e+01 3.777731e+04 1.099999e+00
1.055217e+01 3.749503e+04 1.094043e+00
1.056046e+01 3.731045e+04 1.092131e+00
1.056875e+01 3.719766e+04 1.089435e+00
1.057705e+01 3.713968e+04 1.088499e+00
1.058534e+01 3.707702e+04 1.086904e+00
1.059364e+01 3.697414e+04 1.084946e+00
1.060193e+01 3.690272e+04 1.083139e+00
1.061022e+01 3.686453e+04 1.083061e+00
1.061851e+01 3.681948e+04 1.081511e+00
1.062680e+01 3.682052e+04 1.080761e+00
1.063510e+01 3.678587e+04 1.080462e+00
1.064339e+01 3.674543e+04 1.079269e+00
1.065168e+01 3.675100e+04 1.078598e+00
1.065997e+01 3.669531e+04 1.077065e+00
1.066825e+01 3.669848e+04 1.078032e+00
1.067654e+01 3.666445e+04 1.075440e+00
1.068483e+01 3.664921e+04 1.076286e+00
1.069312e+01 3.664271e+04 1.074460e+00
1.070141e+01 3.664439e+04 1.074333e+00
1.070969e+01 3.663794e+04 1.074543e+00
1.071798e+01 3.657894e+04 1.073220e+00
1.072627e+01 3.661243e+04 1.072194e+00
1.073455e+01 3.660955e+04 1.072471e+00
1.074284e+01 3.656754e+04 1.071132e+00
1.075112e+01 3.656507e+04 1.070844e+00
1.075941e+01 3.657554e+04 1.071183e+00
1.076769e+01 3.658814e+04 1.070494e+00
1.077597e+01 3.659598e+04 1.069337e+00
1.078426e+01 3.654969e+04 1.069613e+00
1.079254e+01 3.658293e+04 1.069063e+00
1.080082e+01 3.656903e+04 1.068209e+00
1.080910e+01 3.660166e+04 1.068802e+00
1.081738e+01 3.655814e+04 1.067318e+00
1.082566e+01 3.656482e+04 1.066983e+00
1.083394e+01 3.657681e+04 1.067324e+00
1.084222e+01 3.656879e+04 1.066244e+00
1.085050e+01 3.658583e+04 1.065037e+00
1.085878e+01 3.660014e+04 1.066552e+00
1.086706e+01 3.662648e+04 1.066455e+00
1.087534e+01 3.663235e+04 1.065912e+00
1.088361e+01 3.663775e+04 1.064868e+00
1.089189e+01 3.661876e+04 1.064230e+00
1.090017e+01 3.662453e+04 1.063705e+00
1.090844e+01 3.663885e+04 1.064654e+00
1.091672e+01 3.667023e+04 1.064714e+00
1.092499e+01 3.665491e+04 1.063358e+00
1.093327e+01 3.669229e+04 1.063376e+00
1.094154e+01 3.675729e+04 1.063793e+00
1.094982e+01 3.681708e+04 1.064215e+00
1.095809e+01 3.689382e+04 1.065865e+00
1.096636e+01 3.697692e+04 1.065900e+00
1.097464e+01 3.716009e+04 1.068291e+00
1.098291e+01 3.744017e+04 1.072112e+00
1.099118e+01 3.799265e+04 1.078719e+00
1.099945e+01 3.929831e+04 1.096779e+00
1.100772e+01 4.283639e+04 1.145648e+00
1.101599e+01 5.394192e+04 1.284760e+00
1.102426e+01 8.910546e+04 1.651522e+00
1.103253e+01 1.747058e+05 2.308708e+00
1.104080e+01 2.813548e+05 2.929608e+00
1.104906e+01 3.024250e+05 3.035982e+00
1.105733e+01 2.129022e+05 2.549011e+00
1.106560e+01 1.102755e+05 1.832670e+00
1.107387e+01 6.038394e+04 1.356184e+00
1.108213e+01 4.463175e+04 1.164055e+00
1.109040e+01 3.981136e+04 1.099916e+00
1.109866e+01 3.811457e+04 1.075225e+00
1.110693e+01 3.738060e+04 1.065258e+00
1.111519e+01 3.708604e+04 1.060425e+00
1.112346e+01 3.689844e+04 1.057547e+00
1.113172e+01 3.677033e+04 1.054448e+00
1.113998e+01 3.670426e+04 1.052752e+00
1.114825e+01 3.661723e+04 1.052107e+00
1.115651e+01 3.655384e+04 1.050926e+00
1.116477e+01 3.650436e+04 1.049913e+00
1.117303e+01 3.648005e+04 1.048741e+00
1.118129e+01 3.644829e+04 1.047526e+00
1.118955e+01 3.642112e+04 1.046773e+00
1.119781e+01 3.640920e+04 1.046933e+00
1.120607e+01 3.638757e+04 1.045882e+00
1.121433e+01 3.637749e+04 1.045926e+00
1.122259e+01 3.633773e+04 1.044303e+00
1.123084e+01 3.632308e+04 1.043701e+00
1.123910e+01 3.634974e+04 1.042662e+00
1.124736e+01 3.632329e+04 1.043360e+00
1.125562e+01 3.631559e+04 1.042687e+00
1.126387e+01 3.633288e+04 1.042763e+00
1.127213e+01 3.629041e+04 1.041048e+00
1.128038e+01 3.627037e+04 1.040326e+00
1.128864e+01 3.627899e+04 1.040093e+00
1.129689e+01 3.625866e+04 1.039661e+00
1.130514e+01 3.627515e+04 1.040487e+00
1.131340e+01 3.627135e+04 1.039054e+00
1.132165e+01 3.624434e+04 1.037895e+00
1.132990e+01 3.625613e+04 1.037370e+00
1.133815e+01 3.627097e+04 1.038230e+00
1.134640e+01 3.628995e+04 1.037577e+00
1.135465e+01 3.626910e+04 1.037987e+00
1.136290e+01 3.628981e+04 1.036822e+00
1.137115e+01 3.624042e+04 1.035870e+00
1.137940e+01 3.617065e+04 1.034107e+00
1.138765e+01 3.618168e+04 1.035000e+00
1.139590e+01 3.621030e+04 1.033072e+00
1.140415e+01 3.623671e+04 1.035220e+00
1.141240e+01 3.623102e+04 1.034405e+00
1.142064e+01 3.624196e+04 1.033737e+00
1.142889e+01 3.625259e+04 1.033036e+00
1.143713e+01 3.624762e+04 1.031933e+00
1.144538e+01 3.625774e+04 1.032988e+00
1.145362e+01 3.626198e+04 1.033033e+00
1.146187e+01 3.626734e+04 1.032395e+00
1.147011e+01 3.626091e+04 1.030987e+00
1.147836e+01 3.634046e+04 1.032586e+00
1.148660e+01 3.634002e+04 1.031099e+00
1.149484e+01 3.639436e+04 1.033291e+00
1.150308e+01 3.640667e+04 1.031953e+00
1.151133e+01 3.649675e+04 1.033698e+00
1.151957e+01 3.665296e+04 1.034379e+00
1.152781e+01 3.689831e+04 1.037699e+00
1.153605e+01 3.738511e+04 1.043928e+00
1.154429e+01 3.869424e+04 1.063041e+00
1.155253e+01 4.251407e+04 1.112799e+00
1.156076e+01 5.472273e+04 1.262729e+00
1.156900e+01 9.014616e+04 1.618640e+00
1.157724e+01 1.560919e+05 2.129628e+00
1.158548e+01 2.065593e+05 2.449154e+00
1.159371e+01 1.864419e+05 2.326969e+00
1.160195e+01 1.185437e+05 1.854949e+00
1.161019e+01 6.641806e+04 1.387622e+00
1.161842e+01 4.588119e+04 1.152357e+00
1.162666e+01 3.963373e+04 1.070458e+00
1.163489e+01 3.763023e+04 1.043413e+00
1.164312e+01 3.692528e+04 1.033803e+00
1.165136e+01 3.660089e+04 1.027988e+00
1.165959e+01 3.639889e+04 1.024571e+00
1.166782e+01 3.632631e+04 1.023564e+00
1.167605e+01 3.624832e+04 1.021654e+00
1.168429e+01 3.620186e+04 1.021294e+00
1.169252e+01 3.615376e+04 1.019763e+00
1.170075e+01 3.617622e+04 1.020535e+00
1.170898e+01 3.611385e+04 1.018585e+00
1.171721e+01 3.607618e+04 1.017572e+00
1.172544e+01 3.606818e+04 1.017181e+00
1.173366e+01 3.606112e+04 1.016528e+00
1.174189e+01 3.604075e+04 1.016751e+00
1.175012e+01 3.600273e+04 1.015705e+00
1.175835e+01 3.599028e+04 1.014469e+00
1.176657e+01 3.597362e+04 1.013437e+00
1.177480e+01 3.596268e+04 1.013399e+00
1.178302e+01 3.593610e+04 1.012981e+00
1.179125e+01 3.585021e+04 1.011726e+00
1.179947e+01 3.574517e+04 1.009551e+00
1.180770e+01 3.565177e+04 1.007026e+00
1.181592e+01 3.568956e+04 1.007574e+00
1.182414e+01 3.578529e+04 1.009154e+00
1.183237e+01 3.586375e+04 1.010203e+00
1.184059e+01 3.596587e+04 1.010476e+00
1.184881e+01 3.590864e+04 1.009930e+00
1.185703e+01 3.591208e+04 1.008861e+00
1.186525e+01 3.590131e+04 1.008667e+00
1.187347e+01 3.589925e+04 1.008381e+00
1.188169e+01 3.587928e+04 1.007787e+00
1.188991e+01 3.587216e+04 1.007074e+00
1.189813e+01 3.585923e+04 1.007319e+00
1.190635e+01 3.582556e+04 1.005411e+00
1.191456e+01 3.585804e+04 1.006150e+00
1.192278e+01 3.583694e+04 1.004947e+00
1.193100e+01 3.583396e+04 1.005245e+00
1.193921e+01 3.583261e+04 1.004320e+00
1.194743e+01 3.581050e+04 1.003982e+00
1.195564e+01 3.577540e+04 1.003109e+00
1.196386e+01 3.577197e+04 1.002553e+00
1.197207e+01 3.571660e+04 1.001904e+00
1.198029e+01 3.566967e+04 1.000023e+00
1.198850e+01 3.566840e+04 1.000314e+00
1.199671e+01 3.565167e+04 9.995329e-01
1.200492e+01 3.561767e+04 9.986785e-01
1.201314e+01 3.557412e+04 9.974394e-01
1.202135e+01 3.556956e+04 9.997550e-01
1.202956e+01 3.561673e+04 1.003439e+00
1.203777e+01 3.562395e+04 1.006333e+00
1.204598e+01 3.566763e+04 1.007738e+00
1.205419e+01 3.573484e+04 1.010934e+00
1.206239e+01 3.593682e+04 1.014150e+00
1.207060e+01 3.667618e+04 1.025954e+00
1.207881e+01 3.857708e+04 1.052327e+00
1.208702e+01 4.503040e+04 1.144442e+00
1.209522e+01 5.598985e+04 1.280365e+00
1.210343e+01 6.344187e+04 1.367744e+00
1.211164e+01 5.948405e+04 1.325782e+00
1.211984e+01 4.852660e+04 1.201249e+00
1.212804e+01 4.030773e+04 1.096847e+00
1.213625e+01 3.709788e+04 1.053369e+00
1.214445e+01 3.611520e+04 1.042180e+00
1.215266e+01 3.579535e+04 1.038336e+00
1.216086e+01 3.567566e+04 1.038995e+00
1.216906e+01 3.563783e+04 1.038413e+00
1.217726e+01 3.558237e+04 1.040679e+00
1.218546e+01 3.556956e+04 1.040951e+00
1.219366e+01 3.555116e+04 1.042446e+00
1.220186e+01 3.555942e+04 1.043221e+00
1.221006e+01 3.551023e+04 1.044691e+00
1.221826e+01 3.548597e+04 1.044704e+00
1.222646e+01 3.543725e+04 1.045837e+00
1.223466e+01 3.539423e+04 1.045509e+00
1.224285e+01 3.536190e+04 1.046422e+00
1.225105e+01 3.517764e+04 1.044987e+00
1.225925e+01 3.505734e+04 1.047418e+00
1.226744e+01 3.517400e+04 1.054836e+00
1.227564e+01 3.518630e+04 1.058424e+00
1.228383e+01 3.516602e+04 1.062390e+00
1.229203e+01 3.518113e+04 1.064259e+00
1.230022e+01 3.517179e+04 1.067681e+00
1.230842e+01 3.518504e+04 1.070854e+00
1.231661e+01 3.523471e+04 1.074731e+00
1.232480e+01 3.535741e+04 1.083460e+00
1.233299e+01 3.534799e+04 1.091003e+00
1.234118e+01 3.532101e+04 1.094334e+00
1.234937e+01 3.534197e+04 1.100099e+00
1.235756e+01 3.534503e+04 1.103343e+00
1.236575e+01 3.530063e+04 1.106602e+00
1.237394e+01 3.532655e+04 1.110248e+00
1.238213e+01 3.532908e+04 1.115123e+00
1.239032e+01 3.537428e+04 1.118220e+00
1.239851e+01 3.536547e+04 1.122354e+00
1.240670e+01 3.535276e+04 1.125263e+00
1.241488e+01 3.537589e+04 1.128667e+00
1.242307e+01 3.537630e+04 1.131018e+00
1.243125e+01 3.537290e+04 1.135737e+00
1.243944e+01 3.538429e+04 1.137581e+00
1.244762e+01 3.536712e+04 1.140752e+00
1.245581e+01 3.539687e+04 1.144521e+00
1.246399e+01 3.541582e+04 1.147228e+00
1.247217e+01 3.542458e+04 1.149851e+00
1.248036e+01 3.542419e+04 1.154052e+00
1.248854e+01 3.544014e+04 1.155290e+00
1.249672e+01 3.546431e+04 1.160303e+00
1.250490e+01 3.547462e+04 1.162437e+00
1.251308e+01 3.549234e+04 1.165371e+00
1.252126e+01 3.556519e+04 1.167886e+00
1.252944e+01 3.561697e+04 1.173902e+00
1.253762e+01 3.572193e+04 1.176860e+00
1.254580e+01 3.593874e+04 1.183366e+00
1.255398e+01 3.645817e+04 1.194871e+00
1.256215e+01 3.784120e+04 1.219834e+00
1.257033e+01 4.219775e+04 1.289484e+00
1.257851e+01 5.562258e+04 1.485857e+00
1.258668e+01 8.666208e+04 1.857989e+00
1.259486e+01 1.251926e+05 2.237656e+00
1.260303e+01 1.363937e+05 2.340111e+00
1.261121e+01 1.076444e+05 2.082715e+00
1.261938e+01 6.855029e+04 1.666501e+00
1.262755e+01 4.654584e+04 1.376042e+00
1.263573e+01 3.903818e+04 1.262349e+00
1.264390e+01 3.681435e+04 1.228301e+00
1.265207e+01 3.607375e+04 1.218934e+00
1.266024e+01 3.577407e+04 1.215388e+00
1.266841e+01 3.561446e+04 1.216144e+00
1.267658e+01 3.549493e+04 1.214606e+00
1.268475e+01 3.546800e+04 1.219095e+00
1.269292e+01 3.544491e+04 1.218826e+00
1.270109e+01 3.543371e+04 1.223075e+00
1.270926e+01 3.541391e+04 1.222785e+00
1.271742e+01 3.540451e+04 1.226878e+00
1.272559e+01 3.537378e+04 1.226893e+00
1.273376e+01 3.535737e+04 1.230806e+00
1.274192e+01 3.538070e+04 1.232744e+00
1.275009e+01 3.531576e+04 1.234906e+00
1.275825e+01 3.530070e+04 1.234776e+00
1.276642e+01 3.530889e+04 1.238858e+00
1.277458e+01 3.530540e+04 1.241715e+00
1.278274e+01 3.528595e+04 1.241698e+00
1.279091e+01 3.529724e+04 1.245877e+00
1.279907e+01 3.530458e+04 1.247544e+00
1.280723e+01 3.528514e+04 1.249156e+00
1.281539e+01 3.527738e+04 1.251929e+00
1.282355e+01 3.531102e+04 1.255542e+00
1.283171e+01 3.531228e+04 1.255340e+00
1.283987e+01 3.527871e+04 1.259728e+00
1.284803e+01 3.528413e+04 1.260023e+00
1.285619e+01 3.530673e+04 1.264301e+00
1.286435e+01 3.527642e+04 1.264589e+00
1.287251e+01 3.526509e+04 1.268273e+00
1.288066e+01 3.527060e+04 1.268401e+00
1.288882e+01 3.529717e+04 1.272978e+00
1.289697e+01 3.529175e+04 1.274726e+00
1.290513e+01 3.529127e+04 1.277219e+00
1.291328e+01 3.531173e+04 1.279512e+00
1.292144e+01 3.532605e+04 1.281555e+00
1.292959e+01 3.534163e+04 1.283630e+00
1.293775e+01 3.534773e+04 1.287316e+00
1.294590e+01 3.529101e+04 1.289522e+00
1.295405e+01 3.535414e+04 1.290158e+00
1.296220e+01 3.540350e+04 1.294721e+00
1.297035e+01 3.538912e+04 1.295962e+00
1.297850e+01 3.542672e+04 1.299336e+00
1.298665e+01 3.551679e+04 1.303193e+00
1.299480e+01 3.557135e+04 1.306946e+00
1.300295e+01 3.568438e+04 1.310406e+00
1.301110e+01 3.580763e+04 1.316282e+00
1.301925e+01 3.602381e+04 1.321177e+00
1.302739e+01 3.660080e+04 1.334110e+00
1.303554e+01 3.831140e+04 1.367259e+00
1.304369e+01 4.324538e+04 1.455550e+00
1.305183e+01 5.867626e+04 1.698003e+00
1.305998e+01 1.009588e+05 2.233843e+00
1.306812e+01 1.763910e+05 2.951603e+00
1.307627e+01 2.368875e+05 3.425418e+00
1.308441e+01 2.214738e+05 3.324227e+00
1.309255e+01 1.460065e+05 2.703331e+00
1.310070e+01 7.930323e+04 1.994515e+00
1.310884e+01 4.966767e+04 1.580346e+00
1.311698e+01 4.030914e+04 1.424484e+00
1.312512e+01 3.735833e+04 1.375758e+00
1.313326e+01 3.625610e+04 1.357824e+00
1.314140e+01 3.584976e+04 1.353329e+00
1.314954e+01 3.570689e+04 1.351147e+00
1.315768e+01 3.554400e+04 1.350169e+00
1.316582e+01 3.545086e+04 1.349749e+00
1.317395e+01 3.535692e+04 1.352625e+00
1.318209e+01 3.526620e+04 1.352780e+00
1.319023e+01 3.522582e+04 1.353587e+00
1.319836e+01 3.520271e+04 1.355683e+00
1.320650e+01 3.516192e+04 1.357238e+00
1.321463e+01 3.514147e+04 1.357270e+00
1.322277e+01 3.515432e+04 1.361055e+00
1.323090e+01 3.508822e+04 1.362361e+00
1.323903e+01 3.507796e+04 1.364510e+00
1.324717e+01 3.501842e+04 1.366146e+00
1.325530e+01 3.503866e+04 1.366541e+00
1.326343e+01 3.500497e+04 1.368439e+00
1.327156e+01 3.498515e+04 1.370399e+00
1.327969e+01 3.494174e+04 1.374687e+00
1.328782e+01 3.495257e+04 1.375123e+00
1.329595e+01 3.494686e+04 1.378595e+00
1.330408e+01 3.498689e+04 1.378037e+00
1.331221e+01 3.493356e+04 1.381605e+00
1.332034e+01 3.490476e+04 1.381715e+00
1.332846e+01 3.494469e+04 1.388863e+00
1.333659e+01 3.492533e+04 1.387827e+00
1.334472e+01 3.492373e+04 1.391445e+00
1.335284e+01 3.486677e+04 1.388886e+00
1.336097e+01 3.485200e+04 1.394662e+00
1.336909e+01 3.486618e+04 1.394013e+00
1.337722e+01 3.487557e+04 1.400892e+00
1.338534e+01 3.484483e+04 1.400551e+00
1.339346e+01 3.478174e+04 1.400939e+00
1.340158e+01 3.475611e+04 1.401333e+00
1.340971e+01 3.470993e+04 1.403856e+00
1.341783e+01 3.472214e+04 1.406140e+00
1.342595e+01 3.484755e+04 1.412503e+00
1.343407e+01 3.484992e+04 1.415797e+00
1.344219e+01 3.494804e+04 1.417137e+00
1.345031e+01 3.490624e+04 1.418901e+00
1.345843e+01 3.489549e+04 1.420158e+00
1.346654e+01 3.486916e+04 1.424239e+00
1.347466e+01 3.484056e+04 1.425854e+00
1.348278e+01 3.479672e+04 1.428755e+00
1.349089e+01 3.476852e+04 1.426378e+00
1.349901e+01 3.474872e+04 1.430037e+00
1.350712e+01 3.472259e+04 1.430762e+00
1.351524e+01 3.473485e+04 1.435550e+00
1.352335e+01 3.475772e+04 1.439100e+00
1.353147e+01 3.471962e+04 1.440458e+00
1.353958e+01 3.473156e+04 1.439330e+00
1.354769e+01 3.471655e+04 1.443460e+00
1.355580e+01 3.464839e+04 1.442908e+00
1.356391e+01 3.465468e+04 1.448051e+00
1.357203e+01 3.465012e+04 1.450107e+00
1.358014e+01 3.466896e+04 1.454124e+00
1.358825e+01 3.469955e+04 1.452685e+00
1.359635e+01 3.467523e+04 1.456433e+00
1.360446e+01 3.466492e+04 1.457600e+00
1.361257e+01 3.465939e+04 1.462422e+00
1.362068e+01 3.463597e+04 1.464550e+00
1.362879e+01 3.461841e+04 1.467363e+00
1.363689e+01 3.461911e+04 1.464103e+00
1.364500e+01 3.462220e+04 1.468768e+00
1.365310e+01 3.463188e+04 1.473526e+00
1.366121e+01 3.459002e+04 1.476156e+00
1.366931e+01 3.458613e+04 1.476538e+00
1.367741e+01 3.458776e+04 1.480122e+00
1.368552e+01 3.462032e+04 1.479040e+00
1.369362e+01 3.457249e+04 1.483276e+00
1.370172e+01 3.454031e+04 1.485851e+00
1.370982e+01 3.458680e+04 1.489615e+00
1.371792e+01 3.458439e+04 1.491094e+00
1.372602e+01 3.454330e+04 1.493283e+00
1.373412e+01 3.452683e+04 1.494182e+00
1.374222e+01 3.453690e+04 1.496287e+00
1.375032e+01 3.452716e+04 1.498702e+00
1.375842e+01 3.454055e+04 1.503597e+00
1.376652e+01 3.451983e+04 1.504574e+00
1.377461e+01 3.448357e+04 1.508789e+00
1.378271e+01 3.444185e+04 1.505691e+00
1.379081e+01 3.447144e+04 1.508275e+00
1.379890e+01 3.448484e+04 1.513218e+00
1.380699e+01 3.446265e+04 1.518033e+00
1.381509e+01 3.449442e+04 1.519189e+00
1.382318e+01 3.447891e+04 1.520935e+00
1.383128e+01 3.450972e+04 1.522330e+00
1.383937e+01 3.448188e+04 1.525356e+00
1.384746e+01 3.452851e+04 1.531199e+00
1.385555e+01 3.449995e+04 1.533014e+00
1.386364e+01 3.450748e+04 1.533390e+00
1.387173e+01 3.449677e+04 1.536191e+00
1.387982e+01 3.451311e+04 1.539242e+00
1.388791e+01 3.456236e+04 1.543256e+00
1.389600e+01 3.451850e+04 1.545368e+00
1.390409e+01 3.456070e+04 1.547866e+00
1.391217e+01 3.451959e+04 1.550119e+00
1.392026e+01 3.456263e+04 1.553736e+00
1.392835e+01 3.455472e+04 1.556224e+00
1.393643e+01 3.470546e+04 1.561202e+00
1.394452e+01 3.503998e+04 1.571525e+00
1.395260e+01 3.599821e+04 1.597435e+00
1.396068e+01 3.900094e+04 1.664022e+00
1.396877e+01 4.644577e+04 1.820571e+00
1.397685e+01 5.826142e+04 2.039182e+00
1.398493e+01 6.646880e+04 2.182918e+00
1.399301e+01 6.292862e+04 2.128573e+00
1.400109e+01 5.102377e+04 1.919867e+00
1.400918e+01 4.099757e+04 1.725050e+00
1.401726e+01 3.659658e+04 1.630720e+00
1.402533e+01 3.524074e+04 1.602967e+00
1.403341e+01 3.477940e+04 1.595876e+00
1.404149e+01 3.464606e+04 1.595738e+00
1.404957e+01 3.452230e+04 1.595880e+00
1.405765e+01 3.448258e+04 1.597024e+00
1.406572e+01 3.442940e+04 1.597980e+00
1.407380e+01 3.443033e+04 1.600616e+00
1.408187e+01 3.444052e+04 1.605278e+00
1.408995e+01 3.443688e+04 1.607722e+00
1.409802e+01 3.440978e+04 1.608720e+00
1.410610e+01 3.443229e+04 1.611429e+00
1.411417e+01 3.439256e+04 1.614033e+00
1.412224e+01 3.438897e+04 1.618676e+00
1.413031e+01 3.432609e+04 1.618429e+00
1.413838e+01 3.425900e+04 1.619816e+00
1.414646e+01 3.427646e+04 1.620849e+00
1.415453e+01 3.427745e+04 1.626304e+00
1.416260e+01 3.431501e+04 1.629082e+00
1.417066e+01 3.434792e+04 1.634801e+00
1.417873e+01 3.439961e+04 1.635712e+00
1.418680e+01 3.438098e+04 1.639611e+00
1.419487e+01 3.435608e+04 1.641715e+00
1.420293e+01 3.439890e+04 1.646553e+00
1.421100e+01 3.438106e+04 1.647360e+00
1.421907e+01 3.434286e+04 1.651208e+00
1.422713e+01 3.436482e+04 1.653049e+00
1.423520e+01 3.434252e+04 1.657197e+00
1.424326e+01 3.438668e+04 1.658462e+00
1.425132e+01 3.437661e+04 1.664018e+00
1.425939e+01 3.441040e+04 1.664635e+00
1.426745e+01 3.439794e+04 1.671415e+00
1.427551e+01 3.435502e+04 1.670372e+00
1.428357e+01 3.440724e+04 1.675387e+00
1.429163e+01 3.438916e+04 1.677274e+00
1.429969e+01 3.445310e+04 1.682623e+00
1.430775e+01 3.446473e+04 1.686027e+00
1.431581e+01 3.448432e+04 1.692098e+00
1.432387e+01 3.448183e+04 1.691054e+00
1.433192e+01 3.453511e+04 1.697011e+00
1.433998e+01 3.461423e+04 1.699733e+00
1.434804e+01 3.470167e+04 1.708092e+00
1.435609e+01 3.488706e+04 1.714162e+00
1.436415e+01 3.523891e+04 1.728618e+00
1.437220e+01 3.599987e+04 1.746812e+00
1.438026e+01 3.814887e+04 1.803707e+00
1.438831e+01 4.487731e+04 1.957148e+00
1.439636e+01 6.455836e+04 2.354037e+00
1.440441e+01 1.069789e+05 3.038661e+00
1.441247e+01 1.593609e+05 3.716427e+00
1.442052e+01 1.796454e+05 3.946725e+00
1.442857e+01 1.469853e+05 3.574012e+00
1.443662e+01 9.204818e+04 2.837569e+00
1.444467e+01 5.551852e+04 2.207980e+00
1.445272e+01 4.133082e+04 1.909192e+00
1.446076e+01 3.690862e+04 1.806957e+00
1.446881e+01 3.542612e+04 1.771079e+00
1.447686e+01 3.489997e+04 1.764294e+00
1.448490e+01 3.460023e+04 1.760711e+00
1.449295e+01 3.442255e+04 1.755791e+00
1.450100e+01 3.427702e+04 1.757989e+00
1.450904e+01 3.420239e+04 1.759090e+00
1.451708e+01 3.421801e+04 1.763245e+00
1.452513e+01 3.428479e+04 1.766249e+00
1.453317e+01 3.427326e+04 1.770792e+00
1.454121e+01 3.425899e+04 1.773428e+00
1.454926e+01 3.425432e+04 1.777391e+00
1.455730e+01 3.420545e+04 1.779902e+00
1.456534e+01 3.419432e+04 1.782256e+00
1.457338e+01 3.419431e+04 1.783996e+00
1.458142e+01 3.417139e+04 1.790747e+00
1.458946e+01 3.419305e+04 1.792745e+00
1.459749e+01 3.422208e+04 1.795617e+00
1.460553e+01 3.425312e+04 1.801359e+00
1.461357e+01 3.425364e+04 1.806515e+00
1.462160e+01 3.422019e+04 1.806148e+00
1.462964e+01 3.424598e+04 1.811845e+00
1.463768e+01 3.415384e+04 1.814107e+00
1.464571e+01 3.415639e+04 1.814175e+00
1.465374e+01 3.412779e+04 1.820887e+00
1.466178e+01 3.408864e+04 1.823034e+00
1.466981e+01 3.408335e+04 1.823336e+00
1.467784e+01 3.411776e+04 1.830427e+00
1.468588e+01 3.407595e+04 1.833270e+00
1.469391e+01 3.409027e+04 1.833022e+00
1.470194e+01 3.412459e+04 1.842225e+00
1.470997e+01 3.407940e+04 1.846892e+00
1.471800e+01 3.408299e+04 1.845604e+00
1.472603e+01 3.404557e+04 1.851357e+00
1.473405e+01 3.410782e+04 1.854075e+00
1.474208e+01 3.415307e+04 1.859997e+00
1.475011e+01 3.413335e+04 1.863713e+00
1.475813e+01 3.417657e+04 1.870995e+00
1.476616e+01 3.422345e+04 1.873333e+00
1.477419e+01 3.431993e+04 1.882255e+00
1.478221e+01 3.451204e+04 1.887711e+00
1.479023e+01 3.508532e+04 1.906576e+00
1.479826e+01 3.625630e+04 1.945197e+00
1.480628e+01 3.996653e+04 2.050774e+00
1.481430e+01 5.129600e+04 2.321867e+00
1.482232e+01 7.848517e+04 2.882961e+00
1.483035e+01 1.195156e+05 3.554216e+00
1.483837e+01 1.471592e+05 3.953306e+00
1.484639e+01 1.350366e+05 3.804185e+00
1.485441e+01 9.451025e+04 3.192316e+00
1.486242e+01 5.884955e+04 2.519329e+00
1.487044e+01 4.223577e+04 2.141113e+00
1.487846e+01 3.679656e+04 1.997411e+00
1.488648e+01 3.509901e+04 1.956850e+00
1.489449e+01 3.449021e+04 1.945971e+00
1.490251e+01 3.424296e+04 1.947987e+00
1.491052e+01 3.416465e+04 1.944681e+00
1.491854e+01 3.403878e+04 1.947249e+00
1.492655e+01 3.401318e+04 1.944243e+00
1.493457e+01 3.395344e+04 1.950354e+00
1.494258e+01 3.394541e+04 1.957042e+00
1.495059e+01 3.388836e+04 1.962161e+00
1.495860e+01 3.383781e+04 1.963711e+00
1.496661e+01 3.382028e+04 1.961973e+00
1.497462e+01 3.381174e+04 1.966431e+00
1.498263e+01 3.379339e+04 1.970409e+00
1.499064e+01 3.377274e+04 1.981106e+00
1.499865e+01 3.373017e+04 1.983549e+00
1.500666e+01 3.373209e+04 1.986271e+00
1.501467e+01 3.364951e+04 1.982564e+00
1.502267e+01 3.366475e+04 1.988712e+00
1.503068e+01 3.369734e+04 1.996134e+00
1.503869e+01 3.367099e+04 2.004978e+00
1.504669e+01 3.369720e+04 2.010082e+00
1.505469e+01 3.368039e+04 2.011753e+00
1.506270e+01 3.366554e+04 2.011310e+00
1.507070e+01 3.362491e+04 2.013607e+00
1.507870e+01 3.357876e+04 2.019789e+00
1.508671e+01 3.362727e+04 2.029898e+00
1.509471e+01 3.357374e+04 2.037162e+00
1.510271e+01 3.360400e+04 2.036570e+00
1.511071e+01 3.360176e+04 2.037383e+00
1.511871e+01 3.356882e+04 2.040041e+00
1.512671e+01 3.359187e+04 2.050296e+00
1.513470e+01 3.360137e+04 2.059237e+00
1.514270e+01 3.354718e+04 2.063312e+00
1.515070e+01 3.362145e+04 2.068484e+00
1.515870e+01 3.368460e+04 2.067665e+00
1.516669e+01 3.360557e+04 2.071029e+00
1.517469e+01 3.361333e+04 2.079646e+00
1.518268e+01 3.366144e+04 2.092336e+00
1.519068e+01 3.376505e+04 2.100339e+00
1.519867e+01 3.387462e+04 2.105533e+00
1.520666e+01 3.427640e+04 2.116460e+00
1.521465e+01 3.559910e+04 2.165131e+00
1.522265e+01 3.948170e+04 2.287690e+00
1.523064e+01 4.888813e+04 2.557043e+00
1.523863e+01 6.381768e+04 2.929352e+00
1.524662e+01 7.542668e+04 3.190030e+00
1.525461e+01 7.320516e+04 3.143550e+00
1.526260e+01 5.882370e+04 2.823815e+00
1.527058e+01 4.439195e+04 2.462447e+00
1.527857e+01 3.718411e+04 2.266258e+00
1.528656e+01 3.467736e+04 2.190049e+00
1.529454e+01 3.390217e+04 2.173110e+00
1.530253e+01 3.366428e+04 2.162162e+00
1.531051e+01 3.357014e+04 2.166672e+00
1.531850e+01 3.345592e+04 2.171655e+00
1.532648e+01 3.337823e+04 2.184272e+00
1.533447e+01 3.345073e+04 2.181349e+00
1.534245e+01 3.347648e+04 2.192819e+00
1.535043e+01 3.344621e+04 2.190884e+00
1.535841e+01 3.341425e+04 2.195991e+00
1.536639e+01 3.343979e+04 2.207529e+00
1.537437e+01 3.341517e+04 2.220020e+00
1.538235e+01 3.341593e+04 2.214663e+00
1.539033e+01 3.337687e+04 2.224827e+00
1.539831e+01 3.335748e+04 2.224016e+00
1.540629e+01 3.342909e+04 2.232035e+00
1.541426e+01 3.341483e+04 2.245999e+00
1.542224e+01 3.333454e+04 2.248907e+00
1.543022e+01 3.341223e+04 2.253579e+00
1.543819e+01 3.333374e+04 2.260745e+00
1.544617e+01 3.328561e+04 2.257901e+00
1.545414e+01 3.328238e+04 2.266137e+00
1.546211e+01 3.324916e+04 2.277693e+00
1.547009e+01 3.327523e+04 2.283222e+00
1.547806e+01 3.327289e+04 2.289247e+00
1.548603e+01 3.328612e+04 2.297495e+00
1.549400e+01 3.329401e+04 2.295403e+00
1.550197e+01 3.326324e+04 2.307156e+00
1.550994e+01 3.320939e+04 2.317372e+00
1.551791e+01 3.325659e+04 2.321271e+00
1.552588e+01 3.326015e+04 2.327248e+00
1.553385e+01 3.321811e+04 2.335878e+00
1.554181e+01 3.320368e+04 2.334412e+00
1.554978e+01 3.320081e+04 2.345113e+00
1.555775e+01 3.329408e+04 2.362733e+00
1.556571e+01 3.335863e+04 2.363636e+00
1.557368e+01 3.334133e+04 2.375991e+00
1.558164e+01 3.346156e+04 2.387355e+00
1.558960e+01 3.352055e+04 2.386412e+00
1.559757e+01 3.371766e+04 2.407985e+00
1.560553e+01 3.429411e+04 2.441745e+00
1.561349e+01 3.593658e+04 2.498014e+00
1.562145e+01 4.117117e+04 2.690400e+00
1.562941e+01 5.367825e+04 3.075504e+00
1.563737e+01 7.369270e+04 3.612143e+00
1.564533e+01 8.950154e+04 3.997088e+00
1.565329e+01 8.727567e+04 3.973043e+00
1.566125e+01 6.837692e+04 3.506221e+00
1.566921e+01 4.881992e+04 2.984480e+00
1.567716e+01 3.858976e+04 2.661445e+00
1.568512e+01 3.500869e+04 2.537279e+00
1.569307e+01 3.396802e+04 2.516464e+00
1.570103e+01 3.346947e+04 2.504239e+00
1.570898e+01 3.331163e+04 2.496924e+00
1.571694e+01 3.320125e+04 2.509989e+00
1.572489e+01 3.315621e+04 2.514497e+00
1.573284e+01 3.323817e+04 2.525562e+00
1.574079e+01 3.313092e+04 2.532687e+00
1.574874e+01 3.317724e+04 2.545819e+00
1.575669e+01 3.314961e+04 2.542029e+00
1.576464e+01 3.321986e+04 2.561757e+00
1.577259e+01 3.311960e+04 2.564482e+00
1.578054e+01 3.311789e+04 2.576984e+00
1.578849e+01 3.307787e+04 2.581906e+00
1.579644e+01 3.300842e+04 2.591760e+00
1.580438e+01 3.305249e+04 2.595603e+00
1.581233e+01 3.308907e+04 2.612528e+00
1.582028e+01 3.308261e+04 2.616595e+00
1.582822e+01 3.302640e+04 2.635454e+00
1.583617e+01 3.292328e+04 2.627746e+00
1.584411e+01 3.291355e+04 2.645171e+00
1.585205e+01 3.297767e+04 2.648028e+00
1.585999e+01 3.300810e+04 2.669188e+00
1.586794e+01 3.299125e+04 2.670525e+00
1.587588e+01 3.296299e+04 2.696624e+00
1.588382e+01 3.296986e+04 2.687730e+00
1.589176e+01 3.299346e+04 2.707745e+00
1.589970e+01 3.296441e+04 2.710772e+00
1.590764e+01 3.303725e+04 2.729632e+00
1.591557e+01 3.298926e+04 2.736923e+00
1.592351e+01 3.300251e+04 2.760447e+00
1.593145e+01 3.306767e+04 2.755546e+00
1.593938e+01 3.310718e+04 2.777031e+00
1.594732e+01 3.304470e+04 2.781545e+00
1.595525e+01 3.312606e+04 2.797770e+00
1.596319e+01 3.319938e+04 2.813190e+00
1.597112e+01 3.329206e+04 2.840227e+00
1.597906e+01 3.346338e+04 2.841336e+00
1.598699e+01 3.386700e+04 2.875116e+00
1.599492e+01 3.497917e+04 2.936674e+00
1.600285e+01 3.843997e+04 3.092662e+00
1.601078e+01 4.873072e+04 3.496494e+00
1.601871e+01 7.316462e+04 4.318584e+00
1.602664e+01 1.108582e+05 5.307089e+00
1.603457e+01 1.400619e+05 6.001241e+00
1.604250e+01 1.353179e+05 5.929303e+00
1.605042e+01 1.001829e+05 5.123804e+00
1.605835e+01 6.319006e+04 4.095685e+00
1.606628e+01 4.333116e+04 3.400622e+00
1.607420e+01 3.628527e+04 3.126941e+00
1.608213e+01 3.417363e+04 3.046517e+00
1.609005e+01 3.336708e+04 3.024347e+00
1.609797e+01 3.309017e+04 3.029261e+00
1.610590e+01 3.293561e+04 3.038229e+00
1.611382e+01 3.287574e+04 3.045297e+00
1.612174e+01 3.278335e+04 3.059628e+00
1.612966e+01 3.270552e+04 3.066519e+00
1.613758e+01 3.276882e+04 3.088638e+00
1.614550e+01 3.261019e+04 3.094697e+00
1.615342e+01 3.260622e+04 3.111460e+00
1.616134e+01 3.254451e+04 3.120115e+00
1.616926e+01 3.238883e+04 3.138092e+00
1.617718e+01 3.235444e+04 3.143602e+00
1.618509e+01 3.247163e+04 3.170668e+00
1.619301e+01 3.246952e+04 3.186887e+00
1.620092e+01 3.243992e+04 3.195947e+00
1.620884e+01 3.234516e+04 3.209518e+00
1.621675e+01 3.237667e+04 3.242733e+00
1.622466e+01 3.230707e+04 3.242407e+00
1.623258e+01 3.240141e+04 3.277678e+00
1.624049e+01 3.231052e+04 3.285081e+00
1.624840e+01 3.232644e+04 3.291391e+00
1.625631e+01 3.231611e+04 3.315400e+00
1.626422e+01 3.235653e+04 3.360614e+00
1.627213e+01 3.237132e+04 3.356699e+00
1.628004e+01 3.233128e+04 3.388403e+00
1.628795e+01 3.236268e+04 3.402152e+00
1.629586e+01 3.231002e+04 3.403036e+00
1.630376e+01 3.229401e+04 3.436231e+00
1.631167e+01 3.231198e+04 3.487273e+00
1.631958e+01 3.225168e+04 3.474875e+00
1.632748e+01 3.236424e+04 3.520028e+00
1.633539e+01 3.222178e+04 3.518339e+00
1.634329e+01 3.224955e+04 3.535509e+00
1.635119e+01 3.221316e+04 3.564036e+00
1.635909e+01 3.221114e+04 3.628898e+00
1.636700e+01 3.249001e+04 3.620965e+00
1.637490e+01 3.291882e+04 3.701993e+00
1.638280e+01 3.445786e+04 3.778901e+00
1.639070e+01 3.853492e+04 4.020445e+00
1.639860e+01 4.891564e+04 4.577975e+00
1.640650e+01 6.525292e+04 5.388879e+00
1.641439e+01 7.944405e+04 5.914556e+00
1.642229e+01 7.909254e+04 6.010974e+00
1.643019e+01 6.416870e+04 5.364252e+00
1.643809e+01 4.684086e+04 4.631121e+00
1.644598e+01 3.696323e+04 4.160888e+00
1.645388e+01 3.342243e+04 4.033841e+00
1.646177e+01 3.247821e+04 3.975485e+00
1.646966e+01 3.209033e+04 4.002641e+00
1.647756e+01 3.190841e+04 3.964647e+00
1.648545e+01 3.177941e+04 4.002230e+00
1.649334e+01 3.166142e+04 4.044013e+00
1.650123e+01 3.171534e+04 4.132651e+00
1.650912e+01 3.163698e+04 4.133111e+00
1.651701e+01 3.162292e+04 4.183328e+00
1.652490e+01 3.169884e+04 4.163081e+00
1.653279e+01 3.171831e+04 4.211834e+00
1.654068e+01 3.158199e+04 4.268944e+00
1.654856e+01 3.137450e+04 4.348758e+00
1.655645e+01 3.137886e+04 4.371515e+00
1.656434e+01 3.143543e+04 4.405064e+00
1.657222e+01 3.150781e+04 4.392543e+00
1.658011e+01 3.124808e+04 4.435947e+00
1.658799e+01 3.129576e+04 4.513850e+00
1.659587e+01 3.119353e+04 4.614381e+00
1.660376e+01 3.106825e+04 4.674214e+00
1.661164e+01 3.105554e+04 4.645572e+00
1.661952e+01 3.097920e+04 4.641471e+00
1.662740e+01 3.087973e+04 4.701523e+00
1.663528e+01 3.101906e+04 4.811294e+00
1.664316e+01 3.106116e+04 4.939633e+00
1.665104e+01 3.095679e+04 5.051817e+00
1.665892e+01 3.065572e+04 4.962164e+00
1.666679e+01 3.064462e+04 4.979295e+00
1.667467e+01 3.046486e+04 5.047008e+00
1.668255e+01 3.029199e+04 5.130105e+00
1.669042e+01 2.997177e+04 5.275315e+00
1.669830e+01 2.992839e+04 5.414131e+00
1.670617e+01 2.946316e+04 5.309841e+00
1.671404e+01 2.926896e+04 5.310128e+00
1.672192e+01 2.931335e+04 5.427767e+00
1.672979e+01 2.928763e+04 5.540742e+00
1.673766e+01 2.919383e+04 5.727308e+00
1.674553e+01 2.947104e+04 5.891745e+00
1.675340e+01 2.903378e+04 5.900227e+00
1.676127e+01 2.925891e+04 5.915969e+00
1.676914e+01 2.937096e+04 6.085867e+00
1.677701e+01 2.951395e+04 6.264764e+00
1.678488e+01 2.946878e+04 6.465268e+00
1.679274e+01 2.946092e+04 6.626160e+00
1.680061e+01 2.954586e+04 6.853667e+00
1.680848e+01 2.958903e+04 6.810124e+00
1.681634e+01 2.934343e+04 6.958556e+00
1.682420e+01 2.919487e+04 7.144227e+00
1.683207e+01 2.890248e+04 7.255734e+00
1.683993e+01 2.878665e+04 7.498262e+00
1.684779e+01 2.865313e+04 7.734251e+00
1.685566e+01 2.896847e+04 7.704649e+00
1.686352e+01 2.847927e+04 7.902819e+00
1.687138e+01 2.831803e+04 8.115165e+00
1.687924e+01 2.798119e+04 8.353355e+00
1.688710e+01 2.725524e+04 8.677023e+00
1.689495e+01 2.700004e+04 8.964222e+00
1.690281e+01 2.728618e+04 8.893277e+00
1.691067e+01 2.759669e+04 9.389800e+00
1.691853e+01 2.789990e+04 9.894159e+00
1.692638e+01 2.771957e+04 1.024687e+01
1.693424e+01 2.816956e+04 1.090224e+01
1.694209e+01 2.634623e+04 1.122758e+01
1.694995e+01 2.716552e+04 1.091545e+01
1.695780e+01 2.665949e+04 1.126721e+01
1.696565e+01 2.610604e+04 1.166057e+01
1.697350e+01 2.693164e+04 1.273730e+01
1.698136e+01 2.592303e+04 1.314611e+01
1.698921e+01 2.551576e+04 1.537065e+01
1.699706e+01 2.651783e+04 1.450720e+01
1.700491e+01 2.573211e+04 1.502399e+01
1.701275e+01 2.445531e+04 1.526132e+01
1.702060e+01 2.384078e+04 1.575885e+01
1.702845e+01 2.269448e+04 1.615104e+01
1.703630e+01 2.150251e+04 1.818812e+01
1.704414e+01 2.187188e+04 1.909271e+01
1.705199e+01 2.002462e+04 1.782838e+01
1.705983e+01 1.859467e+04 1.855655e+01
1.706768e+01 1.781780e+04 1.989852e+01
1.707552e+01 1.683294e+04 2.162364e+01
1.708336e+01 1.504333e+04 2.360425e+01
1.709120e+01 1.191169e+04 3.027018e+01
1.709905e+01 8.318500e+03 2.632885e+01
1.710689e+01 0.000000e+00 0.000000e+00
1.711473e+01 0.000000e+00 0.000000e+00
1.712257e+01 0.000000e+00 0.000000e+00
1.713041e+01 0.000000e+00 0.000000e+00
